Time_s,ECG_mV
0.0,-0.002556602998249409
0.010001666944490749,-0.0323672655039545
0.020003333888981498,0.061036230295829955
0.030005000833472247,0.03079092731403496
0.040006667777962995,-0.004908571997284635
0.050008334722453744,-0.02195900648068629
0.06001000166694449,0.0136834481920948
0.07001166861143523,0.022376647746034137
0.08001333555592599,-0.023743100367859947
0.09001500250041675,0.029445318582479167
0.10001666944490749,0.14237312324905355
0.11001833638939823,-0.009571796936164823
0.12002000333388899,-0.04905630234035986
0.13002167027837974,0.017015231833484055
0.14002333722287047,0.045333377836317815
0.15002500416736123,0.03324233497300621
0.16002667111185198,-0.009397794949958793
0.17002833805634274,0.0426145031715206
0.1800300050008335,0.06295188021016551
0.19003167194532422,0.028314460211413057
0.20003333888981498,0.05161389273734622
0.21003500583430573,0.07244079430955944
0.22003667277879646,0.10104670562713118
0.23003833972328722,0.08573884312900984
0.24004000666777797,0.0009933038523210896
0.2500416736122687,0.12404387048014989
0.2600433405567595,0.10357266271430512
0.2700450075012502,0.07335520746098334
0.28004667444574094,0.12532423500297127
0.2900483413902317,0.08287595840380269
0.30005000833472245,0.014908304933322132
0.31005167527921323,0.05002404230703775
0.32005334222370396,0.11155347001296145
0.3300550091681947,0.023403254004108733
0.3400566761126855,0.06022028748275379
0.3500583430571762,0.0700819893667021
0.360060010001667,0.06537669119360219
0.3700616769461577,0.1084737862155919
0.38006334389064844,-0.015586710651539444
0.3900650108351392,0.1233974185119105
0.40006667777962995,0.05274019005445034
0.4100683447241207,0.009036890760651707
0.42007001166861146,0.05650633109896032
0.4300716786131022,0.11220180989601974
0.4400733455575929,0.03235124895398223
0.4500750125020837,0.08879037124793382
0.46007667944657443,0.029699107878686952
0.4700783463910652,0.03205563397212544
0.48008001333555594,0.10232222344205227
0.49008168028004667,0.0789161171728886
0.5000833472245374,0.13142768642952757
0.5100850141690282,0.05275685878774915
0.520086681113519,0.06835941728255307
0.5300883480580096,0.16363593017333267
0.5400900150025004,0.08263325238696034
0.5500916819469912,0.11180168619109933
0.5600933488914819,0.05873581396897845
0.5700950158359727,0.10783663935063777
0.5800966827804634,0.07869039716631172
0.5900983497249542,0.06465695311519512
0.6001000166694449,0.03649927063850595
0.6101016836139357,0.170430085215635
0.6201033505584265,0.07833834278369164
0.6301050175029171,0.032712396034073374
0.6401066844474079,0.0610516565013927
0.6501083513918987,0.06540993154513644
0.6601100183363894,0.03935286495501837
0.6701116852808802,0.09622429246148632
0.680113352225371,0.08474714157551372
0.6901150191698616,0.06537828731580222
0.7001166861143524,0.0884004635659294
0.7101183530588432,0.12286302228901229
0.720120020003334,0.12358375322625215
0.7301216869478246,0.1082132082799062
0.7401233538923154,0.14104086719838385
0.7501250208368062,0.08951634425804714
0.7601266877812969,0.15400643192668528
0.7701283547257877,0.12721199759795077
0.7801300216702785,0.15050253396329
0.7901316886147691,0.12683952272024593
0.8001333555592599,0.07813528572036962
0.8101350225037507,0.1761358559216586
0.8201366894482414,0.11282077036256451
0.8301383563927321,0.17837110290465516
0.8401400233372229,0.1342351786693321
0.8501416902817136,0.053307639645531785
0.8601433572262044,0.1021773307936959
0.8701450241706952,0.07231644681410583
0.8801466911151858,0.15511623643362335
0.8901483580596766,0.14056740290488906
0.9001500250041674,0.16583455103497952
0.9101516919486582,0.1623812058224602
0.9201533588931489,0.20853575140395075
0.9301550258376396,0.17691438868889456
0.9401566927821304,0.14142482954299412
0.9501583597266211,0.07714245639114897
0.9601600266711119,0.2270843211174812
0.9701616936156027,0.21404165162695127
0.9801633605600933,0.16218092135300238
0.9901650275045841,0.22590837071703146
1.0001666944490748,0.14131878092030412
1.0101683613935657,0.2104202311465109
1.0201700283380564,0.21333282263227993
1.030171695282547,0.1778142106849524
1.040173362227038,0.11526267458707345
1.0501750291715286,0.0994400888228426
1.0601766961160193,0.16806407908863913
1.0701783630605102,0.16431457766591256
1.0801800300050008,0.11586788877634752
1.0901816969494915,0.22544365843141956
1.1001833638939824,0.2445834867279622
1.110185030838473,0.14010849599097647
1.1201866977829638,0.19396507124692597
1.1301883647274547,0.08623209936976507
1.1401900316719453,0.6365165683586764
1.1501916986164362,1.715978221379863
1.160193365560927,-0.2184854494816129
1.1701950325054176,0.08973918245269892
1.1801966994499085,0.22579879462527994
1.1901983663943991,0.21693777555865718
1.2002000333388898,0.22463962398689996
1.2102017002833807,0.19001121488957698
1.2202033672278714,0.18910098312418205
1.230205034172362,0.2177906211262663
1.240206701116853,0.26915981344074474
1.2502083680613436,0.214819188301968
1.2602100350058343,0.2555101866364936
1.2702117019503252,0.23482527517407797
1.2802133688948159,0.18700217134890432
1.2902150358393065,0.16310904172778684
1.3002167027837974,0.25472542234790163
1.310218369728288,0.17695282904008575
1.3202200366727788,0.1966616096603544
1.3302217036172697,0.2836010742318203
1.3402233705617603,0.21214495076349402
1.350225037506251,0.12241000021228687
1.360226704450742,0.2249265483950349
1.3702283713952326,0.21679278455738435
1.3802300383397232,0.2907622211715678
1.3902317052842141,0.16349202299960788
1.4002333722287048,0.21042830656876213
1.4102350391731955,0.20476564242502954
1.4202367061176864,0.1767827282092866
1.430238373062177,0.19459861253155902
1.440240040006668,0.19087046835359586
1.4502417069511586,0.22878924519589217
1.4602433738956493,0.34017180066950836
1.4702450408401402,0.20040352978708328
1.4802467077846309,0.1951158819807149
1.4902483747291215,0.2712555576538206
1.5002500416736124,0.16251351837697026
1.510251708618103,0.1747861131219383
1.5202533755625938,0.2623177237936411
1.5302550425070847,0.2832364967442586
1.5402567094515753,0.24855179845387534
1.550258376396066,0.20448468087731633
1.560260043340557,0.33876090688546334
1.5702617102850476,0.32576987732206325
1.5802633772295382,0.23744590709312852
1.5902650441740291,0.21288673754020343
1.6002667111185198,0.1621540154939567
1.6102683780630105,0.25110576329463086
1.6202700450075014,0.3370010595180184
1.630271711951992,0.16055438885310497
1.6402733788964827,0.2764161237475971
1.6502750458409736,0.18803563688620611
1.6602767127854643,0.2623236043571681
1.670278379729955,0.290896904720902
1.6802800466744459,0.18972372214630956
1.6902817136189365,0.16197402500845598
1.7002833805634272,0.23117367438334613
1.710285047507918,0.21957261106043438
1.7202867144524088,0.22732648059198685
1.7302883813968994,0.26840882526724524
1.7402900483413903,0.2573654835287828
1.750291715285881,0.25276334651264054
1.7602933822303717,0.28122031036643197
1.7702950491748626,0.29354688580433763
1.7802967161193533,0.3024509579365108
1.7902983830638441,0.3066521024371016
1.8003000500083348,0.276967020086978
1.8103017169528255,0.3262974031291848
1.8203033838973164,0.2960368234485173
1.830305050841807,0.2896371000917393
1.8403067177862977,0.29922328872004705
1.8503083847307886,0.2634297160632906
1.8603100516752793,0.24950483914438829
1.87031171861977,0.35342329917150006
1.8803133855642609,0.23699191808200337
1.8903150525087515,0.22341206777574926
1.9003167194532422,0.2185416822196204
1.910318386397733,0.27933321611190753
1.9203200533422238,0.2479331478987021
1.9303217202867144,0.25068716164189303
1.9403233872312053,0.2699884939926832
1.950325054175696,0.34184681500073827
1.9603267211201867,0.31111624575839014
1.9703283880646776,0.24235173655854933
1.9803300550091683,0.2782749174337985
1.990331721953659,0.2715603213622187
2.0003333888981496,0.2534001282723689
2.0103350558426407,0.2595098265041645
2.0203367227871314,0.3675285234943293
2.030338389731622,0.3080935273641757
2.0403400566761127,0.3295061915751205
2.0503417236206034,0.23724857432688842
2.060343390565094,0.25305673069748935
2.070345057509585,0.2740523778192312
2.080346724454076,0.25934145388463176
2.0903483913985665,0.27046554981596427
2.100350058343057,0.29800754043621386
2.110351725287548,0.4067873732496741
2.1203533922320386,0.3091691433949408
2.1303550591765297,0.3215907812025595
2.1403567261210203,0.30593329009568093
2.150358393065511,0.32971174275121307
2.1603600600100017,0.3569752330850642
2.1703617269544924,0.2500860712798294
2.180363393898983,0.45708404780149603
2.190365060843474,0.13078287748101075
2.200366727787965,0.8792929311027508
2.2103683947324555,1.7899918839506528
2.220370061676946,-0.11109548996325917
2.230371728621437,0.2832406928396459
2.2403733955659275,0.28584249410896473
2.2503750625104186,0.265328597044678
2.2603767294549093,0.2818542926424741
2.2703783963994,0.27755387813329657
2.2803800633438907,0.3266624950997297
2.2903817302883813,0.36085338540513334
2.3003833972328724,0.3823741606677714
2.310385064177363,0.3854017611785985
2.320386731121854,0.23838756589063798
2.3303883980663445,0.3191767999380098
2.340390065010835,0.3371590087233886
2.350391731955326,0.27656995400608175
2.360393398899817,0.38719826090347886
2.3703950658443076,0.34245376956601914
2.3803967327887983,0.34192106564558516
2.390398399733289,0.3454471784041812
2.4004000666777796,0.36890481606707637
2.4104017336222703,0.23950309882989002
2.4204034005667614,0.24695031712702759
2.430405067511252,0.31396684953571796
2.4404067344557427,0.34711653549488725
2.4504084014002334,0.324772463417225
2.460410068344724,0.3265729831161429
2.4704117352892148,0.40567102817446427
2.480413402233706,0.3918961843222188
2.4904150691781965,0.33510108456221754
2.5004167361226872,0.3901828929192055
2.510418403067178,0.3019767911986638
2.5204200700116686,0.36172533970121246
2.5304217369561592,0.4636275009571332
2.5404234039006504,0.42114731530897787
2.550425070845141,0.382793920732792
2.5604267377896317,0.3438985901281243
2.5704284047341224,0.37202356964774663
2.580430071678613,0.3715602007554506
2.590431738623104,0.3639515788609858
2.600433405567595,0.4263829660984563
2.6104350725120855,0.32173886526975026
2.620436739456576,0.3362855111708743
2.630438406401067,0.30480718351754915
2.6404400733455575,0.40665956896947386
2.6504417402900486,0.23798824263235907
2.6604434072345393,0.3651498475134066
2.67044507417903,0.3405139921982037
2.6804467411235207,0.3434565563711522
2.6904484080680113,0.3536996821686915
2.700450075012502,0.4034184291660005
2.710451741956993,0.3494098358275676
2.720453408901484,0.3924141840537893
2.7304550758459745,0.3499171605443172
2.740456742790465,0.32868055798727325
2.750458409734956,0.40817262701965085
2.7604600766794465,0.38376386901334897
2.7704617436239376,0.3679068791820718
2.7804634105684283,0.27820749361249025
2.790465077512919,0.41332475475677605
2.8004667444574096,0.43356171639374097
2.8104684114019003,0.31101989930922797
2.820470078346391,0.36468516670222295
2.830471745290882,0.3391289656452114
2.8404734122353728,0.407887733688262
2.8504750791798634,0.36112184390184043
2.860476746124354,0.48288551702703764
2.8704784130688448,0.43684374448965035
2.880480080013336,0.44962242918928236
2.8904817469578266,0.3469481543098013
2.9004834139023172,0.47253411310861837
2.910485080846808,0.45361610929140767
2.9204867477912986,0.45217971018495895
2.9304884147357892,0.42893147208665056
2.9404900816802804,0.41500301914871496
2.950491748624771,0.413034456300049
2.9604934155692617,0.446931260917787
2.9704950825137524,0.38758226083525843
2.980496749458243,0.4129734795814653
2.9904984164027337,0.3647089735068122
3.000500083347225,0.42220419490954036
3.0105017502917155,0.4532488018788067
3.020503417236206,0.3768942819460404
3.030505084180697,0.4613160884310555
3.0405067511251875,0.33234573916073046
3.050508418069678,0.40443790232755933
3.0605100850141693,0.3237508364953539
3.07051175195866,0.41505688911984057
3.0805134189031507,0.40024389095728674
3.0905150858476413,0.3960265917107939
3.100516752792132,0.30445016915005935
3.1105184197366227,0.37980461582456054
3.120520086681114,0.3588223804516853
3.1305217536256045,0.3757970976667324
3.140523420570095,0.49655250680498686
3.150525087514586,0.4081042473214116
3.1605267544590765,0.4477818833258283
3.170528421403567,0.44245392933313865
3.1805300883480583,0.37251248548515936
3.190531755292549,0.24936894880117583
3.2005334222370396,0.9012759871121051
3.2105350891815303,1.9774305148931437
3.220536756126021,-0.027549639196228784
3.230538423070512,0.2853697378579838
3.2405400900150028,0.3295675234466543
3.2505417569594934,0.36539247539236447
3.260543423903984,0.5011122910121436
3.270545090848475,0.43468722508579904
3.2805467577929655,0.45730400096004664
3.2905484247374566,0.4485506460844513
3.3005500916819472,0.4394745598054796
3.310551758626438,0.36025391612326785
3.3205534255709286,0.43813786901200985
3.3305550925154193,0.44679179117069484
3.34055675945991,0.5240807767950519
3.350558426404401,0.4790109932117922
3.3605600933488917,0.3828775039376629
3.3705617602933824,0.4441953479512318
3.380563427237873,0.3826741229753564
3.3905650941823637,0.40200440121306713
3.4005667611268544,0.4902446308341593
3.4105684280713455,0.4179449868460508
3.420570095015836,0.4505934307827248
3.430571761960327,0.45067193520088794
3.4405734289048175,0.3877944153957732
3.450575095849308,0.4327711913942952
3.460576762793799,0.4665727110633374
3.47057842973829,0.44703702891627145
3.4805800966827807,0.4258341823476339
3.4905817636272714,0.41807640462723705
3.500583430571762,0.4318585059445712
3.5105850975162527,0.4735762431485662
3.5205867644607434,0.4291757938432005
3.5305884314052345,0.3936765836652928
3.540590098349725,0.434977342962411
3.550591765294216,0.4656629078770562
3.5605934322387065,0.43755690027526184
3.570595099183197,0.4122934196289749
3.5805967661276883,0.4138492929621281
3.590598433072179,0.4123302019028998
3.6006001000166696,0.41887193980762755
3.6106017669611603,0.4078083474284901
3.620603433905651,0.47655950748332304
3.6306051008501417,0.46670977799917956
3.6406067677946328,0.29933926910374514
3.6506084347391234,0.5302697695560159
3.660610101683614,0.4785231064985268
3.670611768628105,0.3949382586379431
3.6806134355725955,0.5052165536130511
3.690615102517086,0.4544649990883226
3.7006167694615772,0.44554722211072373
3.710618436406068,0.47758362322237624
3.7206201033505586,0.46045990677260323
3.7306217702950493,0.4805419780407191
3.74062343723954,0.4329121077564904
3.7506251041840306,0.46083893221094185
3.7606267711285217,0.4697432597491699
3.7706284380730124,0.4636032626645468
3.780630105017503,0.41499333195986443
3.7906317719619937,0.41280499832875195
3.8006334389064844,0.47330945361096105
3.810635105850975,0.4673285507326555
3.820636772795466,0.5121288977514729
3.830638439739957,0.49403176051364567
3.8406401066844476,0.502315512402188
3.8506417736289382,0.5291495251278322
3.860643440573429,0.45108893658545596
3.87064510751792,0.44709765444344884
3.8806467744624107,0.49761004352895577
3.8906484414069014,0.3649280483160344
3.900650108351392,0.5275709581608212
3.9106517752958827,0.4446725630771068
3.9206534422403734,0.4600926879602038
3.9306551091848645,0.4722395156379643
3.940656776129355,0.5566000364613577
3.950658443073846,0.5339160982658837
3.9606601100183365,0.42512055167031576
3.970661776962827,0.3920083180691162
3.980663443907318,0.5780636154881887
3.990665110851809,0.4120277475647104
4.000666777796299,0.3787624045208485
4.01066844474079,0.504561430183648
4.020670111685281,0.4434597500025919
4.030671778629772,0.5352772396187364
4.040673445574263,0.552134370814877
4.0506751125187535,0.44092843524706404
4.060676779463244,0.40396337623444317
4.070678446407735,0.5219214854629929
4.0806801133522255,0.43276563834685666
4.090681780296716,0.5432633119681098
4.100683447241207,0.46514372424138734
4.1106851141856975,0.4764317861817538
4.120686781130188,0.5228557694776939
4.130688448074679,0.4856165785954325
4.14069011501917,0.2964554595997518
4.150691781963661,1.0318264810284066
4.160693448908152,1.9721932984244948
4.170695115852642,0.14583861099100304
4.180696782797133,0.43773969794029893
4.190698449741624,0.5131400103276897
4.200700116686114,0.3936042705483264
4.210701783630605,0.4725301897756316
4.220703450575096,0.5514510685598032
4.2307051175195864,0.5007994874168331
4.240706784464077,0.5314428634881342
4.250708451408569,0.511377349122672
4.260710118353059,0.40938533395906374
4.27071178529755,0.5251820562186718
4.280713452242041,0.44430592837574934
4.290715119186531,0.5093841734181721
4.300716786131022,0.5601716407953201
4.310718453075513,0.4255534277797905
4.320720120020003,0.4908499100002877
4.330721786964494,0.470757977832843
4.340723453908985,0.4371091204416778
4.350725120853475,0.4648253315477961
4.360726787797966,0.5177835664400301
4.370728454742458,0.5197909023611684
4.380730121686948,0.491149423645694
4.390731788631439,0.5300773462470045
4.40073345557593,0.6317757529559332
4.41073512252042,0.44463394539007917
4.420736789464911,0.537714582949386
4.430738456409402,0.5656149245293343
4.440740123353892,0.4137724670068906
4.450741790298383,0.5012116382261521
4.460743457242874,0.4308956039229555
4.470745124187364,0.45976789663418105
4.480746791131855,0.5867812772512483
4.490748458076347,0.522854820267845
4.500750125020837,0.47754001941900703
4.510751791965328,0.5024168699042919
4.520753458909819,0.41260913192386484
4.530755125854309,0.42586095252685785
4.5407567927988,0.5042482804131052
4.550758459743291,0.46559606131967396
4.560760126687781,0.5359114031848995
4.570761793632272,0.49380714703244466
4.580763460576763,0.4613823512320969
4.590765127521253,0.47709930714308885
4.600766794465745,0.3852902742878565
4.6107684614102356,0.5113692380309053
4.620770128354726,0.4901073796739104
4.630771795299217,0.48584928968611196
4.640773462243708,0.4405595947076535
4.650775129188198,0.4915888863987986
4.660776796132689,0.5157139789114734
4.67077846307718,0.5300944549714793
4.68078013002167,0.5434802073180391
4.690781796966161,0.5001913174392556
4.700783463910652,0.468972382837116
4.710785130855142,0.4610829759320464
4.720786797799634,0.4915439536585597
4.7307884647441245,0.5235448408490135
4.740790131688615,0.4962816617306402
4.750791798633106,0.48169786129352854
4.7607934655775965,0.46848470413683324
4.770795132522087,0.5963324419584316
4.780796799466578,0.44060825050919555
4.7907984664110685,0.48953241748635556
4.800800133355559,0.3925037093957224
4.81080180030005,0.4982195198607892
4.820803467244541,0.5008020130762421
4.830805134189032,0.5148290558757825
4.840806801133523,0.5488893281771673
4.8508084680780135,0.5233124130102929
4.860810135022504,0.5440270033059269
4.870811801966995,0.48914360883861124
4.8808134689114855,0.5639554638605793
4.890815135855976,0.5131967814674495
4.900816802800467,0.41513089875774006
4.9108184697449575,0.4757805990636208
4.920820136689448,0.5277151668753077
4.930821803633939,0.5251423172640813
4.9408234705784295,0.46697403234419516
4.950825137522921,0.4530847111957701
4.960826804467412,0.4801428734806563
4.970828471411902,0.4466815623994921
4.980830138356393,0.4389822984057314
4.990831805300884,0.4928559072300918
5.0008334722453744,0.43323324901481064
5.010835139189865,0.5698980890400022
5.020836806134356,0.5437694992058214
5.0308384730788465,0.4865776424275747
5.040840140023337,0.37278965381672924
5.050841806967828,1.004592143093539
5.0608434739123185,1.9283530688245811
5.07084514085681,0.08878637745208343
5.080846807801301,0.41559398674724857
5.090848474745791,0.5719986527477308
5.100850141690282,0.506060958546409
5.110851808634773,0.4661638513282528
5.120853475579263,0.4971338000772311
5.130855142523754,0.492063702625974
5.140856809468245,0.49304500317751193
5.150858476412735,0.5325000944632793
5.160860143357226,0.4380945124426373
5.170861810301717,0.4913639900760174
5.180863477246208,0.48857236710983454
5.190865144190699,0.4991504458566431
5.20086681113519,0.4785940604038269
5.21086847807968,0.5568072020976489
5.220870145024171,0.547429867232831
5.230871811968662,0.5074341579701641
5.240873478913152,0.4337466214022239
5.250875145857643,0.5106285879905366
5.260876812802134,0.48462718256566756
5.270878479746624,0.47905792618587417
5.280880146691115,0.5441313908977842
5.290881813635606,0.5670002509812975
5.300883480580097,0.5022270047370441
5.310885147524588,0.5662290381239679
5.320886814469079,0.4875033745342816
5.330888481413569,0.4442873096730492
5.34089014835806,0.5566340189243331
5.350891815302551,0.48169894578193656
5.360893482247041,0.4583150121407395
5.370895149191532,0.39586773476338194
5.380896816136023,0.5245874600761609
5.390898483080513,0.47304097143962665
5.400900150025004,0.6048988938628447
5.410901816969495,0.3867717672451741
5.420903483913986,0.4348176186163125
5.430905150858477,0.5292839781312271
5.440906817802968,0.4740325025322821
5.450908484747458,0.5807480079386667
5.460910151691949,0.5267215772650214
5.47091181863644,0.5306525339701408
5.48091348558093,0.5607480685653152
5.490915152525421,0.475608108223199
5.500916819469912,0.5634134855344987
5.510918486414402,0.535096234975899
5.520920153358893,0.4082995090164583
5.5309218203033845,0.4402526420715551
5.540923487247875,0.5404372706340203
5.550925154192366,0.49819151691177543
5.5609268211368565,0.39546578390182796
5.570928488081347,0.4885372118785616
5.580930155025838,0.5173928445770559
5.590931821970329,0.44765864980076164
5.600933488914819,0.4522835482784793
5.61093515585931,0.5198109288074019
5.620936822803801,0.6183274839259189
5.630938489748291,0.5866474213308761
5.640940156692782,0.52421512046839
5.6509418236372735,0.4519440092621453
5.660943490581764,0.45160508169182706
5.670945157526255,0.5145821635980141
5.6809468244707455,0.40230423031601187
5.690948491415236,0.47434434301443346
5.700950158359727,0.5689099927148414
5.7109518253042175,0.5891006449385349
5.720953492248708,0.560733299407743
5.730955159193199,0.4310718458157031
5.7409568261376895,0.5047723258275411
5.75095849308218,0.43398041162372725
5.760960160026672,0.5129622979628795
5.7709618269711624,0.42167406301324695
5.780963493915653,0.4468779046493353
5.790965160860144,0.44850531772659535
5.8009668278046345,0.4988801208820401
5.810968494749125,0.5597957243130368
5.820970161693616,0.4069918120549418
5.8309718286381065,0.5178397752178062
5.840973495582597,0.4463416668040834
5.850975162527088,0.4892502217538014
5.8609768294715785,0.5001834532551022
5.870978496416069,0.5323350524974604
5.880980163360561,0.4027007736686454
5.890981830305051,0.5325918137628044
5.900983497249542,0.4868989779761759
5.910985164194033,0.3187906670717424
5.920986831138523,0.9626328072384825
5.930988498083014,1.9704779897718145
5.940990165027505,-0.04522854716055827
5.950991831971995,0.3779425365958333
5.960993498916486,0.48205863898846596
5.970995165860977,0.5302096160452802
5.9809968328054675,0.5069429755989482
5.990998499749958,0.5111989620204459
6.00100016669445,0.5228369976281362
6.01100183363894,0.4373191825317233
6.021003500583431,0.40438502122960096
6.031005167527922,0.47305942347907926
6.041006834472412,0.6040627183059042
6.051008501416903,0.5427561448877104
6.061010168361394,0.4746765069632206
6.071011835305884,0.46325742952460114
6.081013502250375,0.4864821772426555
6.091015169194866,0.4617710519271103
6.101016836139356,0.4570637179913221
6.111018503083848,0.47614456033851627
6.121020170028339,0.4477071040648871
6.131021836972829,0.5126485430330585
6.14102350391732,0.47788885090943223
6.151025170861811,0.4377249753889167
6.161026837806301,0.5297008343036147
6.171028504750792,0.4143277394727336
6.181030171695283,0.44017694744315006
6.191031838639773,0.48238032244989504
6.201033505584264,0.49789822146981405
6.211035172528755,0.46569627827343496
6.221036839473245,0.4646591360229798
6.231038506417737,0.34943913962639556
6.241040173362228,0.3927537729646803
6.251041840306718,0.44899644977343245
6.261043507251209,0.45563589286430906
6.2710451741957,0.446322760467497
6.28104684114019,0.431179123182045
6.291048508084681,0.45023345921692887
6.301050175029172,0.49806751149267153
6.311051841973662,0.45582286193551225
6.321053508918153,0.49605208029891024
6.331055175862644,0.441314055670008
6.341056842807134,0.4302211619616786
6.351058509751626,0.42161906556362605
6.361060176696117,0.4653021649684596
6.371061843640607,0.44543694476349105
6.381063510585098,0.46401681080282886
6.391065177529589,0.48110420162631323
6.401066844474079,0.39427291541297915
6.41106851141857,0.4519590064935474
6.421070178363061,0.3524834385849106
6.431071845307551,0.434725808802019
6.441073512252042,0.3971565606220325
6.451075179196533,0.46466513842235124
6.461076846141024,0.4852943511461047
6.471078513085515,0.47067059666575806
6.4810801800300055,0.3890542045198698
6.491081846974496,0.36577441628273555
6.501083513918987,0.4403713261931703
6.5110851808634775,0.41070669984874986
6.521086847807968,0.4819726026027133
6.531088514752459,0.3670635505451916
6.54109018169695,0.45476736741972906
6.55109184864144,0.5093508000642284
6.561093515585931,0.4068405693785014
6.571095182530422,0.48423098985863816
6.581096849474913,0.44210335809588097
6.591098516419404,0.49841434364954773
6.6011001833638945,0.45177861020697085
6.611101850308385,0.494661703699529
6.621103517252876,0.44235230054346153
6.6311051841973665,0.48067686755667505
6.641106851141857,0.43698593079409054
6.651108518086348,0.3561816942306433
6.6611101850308385,0.3887919935732975
6.671111851975329,0.49398368429393286
6.68111351891982,0.37916273521303967
6.6911151858643105,0.4121644893640198
6.701116852808802,0.4092047917141446
6.711118519753293,0.48518913276197484
6.721120186697783,0.4248813258654264
6.731121853642274,0.46386740702639706
6.741123520586765,0.3925316945767223
6.7511251875312555,0.24391024980729495
6.761126854475746,0.8359183108425827
6.771128521420237,1.9134536605720325
6.7811301883647275,0.09688767795158926
6.791131855309218,0.27052847276212727
6.801133522253709,0.44327791607356404
6.8111351891982,0.3368692663845711
6.821136856142691,0.46522788824659944
6.831138523087182,0.508835791273257
6.841140190031672,0.3797170321223587
6.851141856976163,0.39089836063318356
6.861143523920654,0.427996327903287
6.871145190865144,0.3661644863639246
6.881146857809635,0.37223303394021784
6.891148524754126,0.34440442598141713
6.901150191698616,0.45394907229183135
6.911151858643107,0.4519464520231258
6.921153525587598,0.3974492281719157
6.931155192532089,0.409010650550282
6.94115685947658,0.4524213237144286
6.951158526421071,0.5126982076227814
6.961160193365561,0.4004714861105282
6.971161860310052,0.40776318879440104
6.981163527254543,0.4169221173720019
6.991165194199033,0.3558692737686907
7.001166861143524,0.4240632216707933
7.011168528088015,0.3670919269449099
7.021170195032505,0.46160212431081976
7.031171861976996,0.41081580657529254
7.041173528921487,0.3720237907643702
7.051175195865978,0.379289990080528
7.061176862810469,0.4193960606418708
7.07117852975496,0.40048604972250307
7.08118019669945,0.38453763596960466
7.091181863643941,0.3814434226244544
7.101183530588432,0.37221638553497366
7.111185197532922,0.38895477391129213
7.121186864477413,0.49871287275234055
7.131188531421904,0.38219903391817045
7.141190198366394,0.40035821012634915
7.151191865310885,0.45101960740373465
7.161193532255377,0.39368547077452437
7.171195199199867,0.3885701504380228
7.181196866144358,0.45519291713512955
7.191198533088849,0.3809723430971095
7.201200200033339,0.3053477594885645
7.21120186697783,0.3723958782238296
7.221203533922321,0.4197943797957873
7.231205200866811,0.35452557478642677
7.241206867811302,0.38276607608537044
7.251208534755793,0.42605558019404216
7.261210201700283,0.2897004755443677
7.271211868644774,0.36062596202830766
7.2812135355892655,0.39903103450829575
7.291215202533756,0.38822302710491186
7.301216869478247,0.3910166321117957
7.311218536422738,0.39931539278807415
7.321220203367228,0.42338970184900887
7.331221870311719,0.42380029378322925
7.34122353725621,0.4047976850320142
7.3512252042007,0.39490277695838627
7.361226871145191,0.35893919606978547
7.371228538089682,0.4019894766467564
7.381230205034172,0.4539353668108581
7.391231871978664,0.3787289226969394
7.4012335389231545,0.34025304711481763
7.411235205867645,0.40230354719602957
7.421236872812136,0.41726342752983214
7.4312385397566265,0.3143000871901396
7.441240206701117,0.4129610485288271
7.451241873645608,0.2445260062906856
7.4612435405900985,0.34141989488133134
7.471245207534589,0.40101329910582867
7.48124687447908,0.35621712734175676
7.4912485414235706,0.23686851045636062
7.501250208368061,0.33178153739336685
7.511251875312553,0.3620546628292725
7.5212535422570435,0.2947014226776459
7.531255209201534,0.34642091241357204
7.541256876146025,0.44818956477304533
7.5512585430905155,0.3235215147669201
7.561260210035006,0.24794078889816495
7.571261876979497,0.10579257333773492
7.5812635439239875,0.8353271843927853
7.591265210868478,1.851923021565083
7.601266877812969,-0.03958481482032049
7.6112685447574595,0.25113864706504796
7.62127021170195,0.34137673657615925
7.631271878646442,0.39582715361482146
7.641273545590932,0.3665133347652855
7.651275212535423,0.3699993222885474
7.661276879479914,0.3257567484167102
7.671278546424404,0.336481683083953
7.681280213368895,0.2594716234297274
7.691281880313386,0.3279680539539959
7.7012835472578764,0.39253894742574963
7.711285214202367,0.30322878315574664
7.721286881146858,0.3521381229076981
7.7312885480913485,0.3828697905428059
7.74129021503584,0.37114939795343393
7.751291881980331,0.2502868556339596
7.761293548924821,0.35021913715010633
7.771295215869312,0.37647753301142006
7.781296882813803,0.28624665839347785
7.791298549758293,0.3979043870070282
7.801300216702784,0.18182325026350796
7.811301883647275,0.3003188165033389
7.821303550591765,0.39890988105668507
7.831305217536256,0.2623769088849161
7.841306884480747,0.3779538718783451
7.851308551425237,0.3355284777580621
7.861310218369729,0.37178629110387235
7.87131188531422,0.2972369983038275
7.88131355225871,0.3306790181038417
7.891315219203201,0.3622678795120509
7.901316886147692,0.1423740465751625
7.911318553092182,0.3487072398787656
7.921320220036673,0.29023117216959704
7.931321886981164,0.2677025208961021
7.941323553925654,0.2923137248076941
7.951325220870145,0.24976487983761178
7.961326887814636,0.29620360369013465
7.971328554759126,0.3156715566708597
7.981330221703618,0.4113666077924194
7.991331888648109,0.26904005469452985
8.001333555592598,0.2279094275108416
8.01133522253709,0.22422602414493187
8.02133688948158,0.3473637852705985
8.031338556426071,0.29306611379658243
8.041340223370563,0.2233397745122595
8.051341890315053,0.203725824286224
8.061343557259544,0.26013339518151674
8.071345224204034,0.23419858409796282
8.081346891148526,0.27400702234745666
8.091348558093015,0.2722274971310929
8.101350225037507,0.27500856451416544
8.111351891981997,0.31384814869796285
8.121353558926488,0.21349975366704535
8.131355225870978,0.30129732828766626
8.14135689281547,0.27800273421457516
8.151358559759961,0.26765205484826604
8.161360226704451,0.26350342912312363
8.171361893648942,0.22839967679377793
8.181363560593432,0.2747057453496091
8.191365227537924,0.2622508199656699
8.201366894482414,0.2713998473814533
8.211368561426905,0.31383678731178277
8.221370228371395,0.2765375135172636
8.231371895315887,0.17481966956317085
8.241373562260376,0.23070646627428418
8.251375229204868,0.21401135383135425
8.261376896149358,0.31586525695730505
8.27137856309385,0.2432199121043639
8.28138023003834,0.29590779680454327
8.29138189698283,0.25836053735667613
8.301383563927322,0.21566495679868974
8.311385230871812,0.3414651192405002
8.321386897816303,0.2894275998410409
8.331388564760793,0.18362784148956465
8.341390231705285,0.18404115265418142
8.351391898649775,0.21748651601196756
8.361393565594266,-0.03322421542570782
8.371395232538756,0.7817576780893826
8.381396899483248,1.833185392955881
8.391398566427739,-0.22340683716120135
8.401400233372229,0.18746220100246092
8.41140190031672,0.3040805772614196
8.42140356726121,0.1268864216603201
8.431405234205702,0.22185342928394325
8.441406901150192,0.29370791747885483
8.451408568094683,0.23894987968695633
8.461410235039173,0.23095619261291506
8.471411901983664,0.227675878301457
8.481413568928154,0.15843613052812128
8.491415235872646,0.31353497557943566
8.501416902817137,0.17231800551380932
8.511418569761627,0.1772723754540507
8.521420236706119,0.18114801863702493
8.531421903650608,0.1945175364261409
8.5414235705951,0.21835657847455134
8.55142523753959,0.2164574571192249
8.561426904484081,0.2459912701161086
8.571428571428571,0.1735913054561621
8.581430238373063,0.18256562245786154
8.591431905317553,0.224782141983848
8.601433572262044,0.2137874619724832
8.611435239206534,0.22667657954216858
8.621436906151025,0.22649856658700523
8.631438573095517,0.32644495893171455
8.641440240040007,0.17731116257971313
8.651441906984498,0.08731643072497225
8.661443573928988,0.2857851570198638
8.67144524087348,0.21140556975531302
8.68144690781797,0.22733289592610698
8.691448574762461,0.22641799272812427
8.70145024170695,0.23540981239910225
8.711451908651442,0.2642740942581187
8.721453575595932,0.08172071506868822
8.731455242540424,0.25201427809585336
8.741456909484915,0.17980514104583256
8.751458576429405,0.08492524979705611
8.761460243373897,0.19071900775477849
8.771461910318386,0.20525672917412432
8.781463577262878,0.12144614339456997
8.791465244207368,0.20809493727926115
8.80146691115186,0.24427117560977915
8.811468578096349,0.16396940540455568
8.82147024504084,0.11863309844149153
8.83147191198533,0.1526286591757508
8.841473578929822,0.17901357322949327
8.851475245874314,0.17356646200322737
8.861476912818803,0.1251638836567516
8.871478579763295,0.23138591163640995
8.881480246707785,0.05797623939547612
8.891481913652276,0.13301042121407758
8.901483580596766,0.18839225830564735
8.911485247541258,0.20983677126573833
8.921486914485747,0.23455132086077757
8.931488581430239,0.13544954521246816
8.941490248374729,0.16792520164077407
8.95149191531922,0.22634540943066284
8.96149358226371,0.20522773354294568
8.971495249208202,0.06810354396454828
8.981496916152693,0.1692509072089423
8.991498583097183,0.11936294619506738
9.001500250041675,0.16765237597848798
9.011501916986164,0.1525336901424505
9.021503583930656,0.1688385757101216
9.031505250875146,0.1061137288812006
9.041506917819637,0.1450805625466901
9.051508584764127,0.13276470168218002
9.061510251708619,0.1144930216786118
9.071511918653108,0.20879052832487666
9.0815135855976,0.16896308882991143
9.091515252542091,0.10934945858282094
9.101516919486581,0.04982813442380357
9.111518586431073,0.19369697388847557
9.121520253375563,0.15016349081042327
9.131521920320054,0.2563676969941237
9.141523587264544,-0.06503395433362949
9.151525254209036,0.6506746048092947
9.161526921153525,1.5351648033943048
9.171528588098017,-0.15710740336782167
9.181530255042507,0.11067088101523823
9.191531921986998,0.1656555344240595
9.20153358893149,0.17858907869044793
9.21153525587598,0.1394351629743892
9.221536922820471,0.12294613199175315
9.231538589764961,0.053524648744148154
9.241540256709452,0.22576910398911135
9.251541923653942,0.10227981800024487
9.261543590598434,0.14225070387572564
9.271545257542924,0.08153437756723853
9.281546924487415,0.1293695471759411
9.291548591431905,0.17845661318239409
9.301550258376396,0.054826876087322896
9.311551925320888,0.0609256192869506
9.321553592265378,0.08595046653145294
9.33155525920987,0.15219334715704289
9.34155692615436,0.10357591080601333
9.35155859309885,0.05378062560625246
9.36156026004334,0.08488167765633353
9.371561926987832,0.13596298240943705
9.381563593932322,0.11235806487326218
9.391565260876813,0.1260378375771319
9.401566927821303,0.0866897715272777
9.411568594765795,0.03969647208649792
9.421570261710285,0.11936308916056103
9.431571928654776,0.14615901451428687
9.441573595599268,0.14407507045932316
9.451575262543757,0.034650022243000414
9.461576929488249,0.13457190070271757
9.471578596432739,-0.025154443312339306
9.48158026337723,0.06445266316020327
9.49158193032172,0.1650960201656334
9.501583597266212,0.08790856321302538
9.511585264210701,0.07407461068978147
9.521586931155193,0.02098869375808183
9.531588598099683,0.04084877943238815
9.541590265044174,0.08649494125334328
9.551591931988666,0.07346976349415124
9.561593598933156,0.042421898544181186
9.571595265877647,0.07503957036105327
9.581596932822137,0.008509409894197552
9.591598599766629,0.07529484024569136
9.601600266711118,0.08539745827262989
9.61160193365561,0.10326427234198446
9.6216036006001,0.04888765221385497
9.631605267544591,0.07313263202269274
9.641606934489081,0.015541133989651956
9.651608601433573,0.0940602062725537
9.661610268378064,0.014035207436516713
9.671611935322554,0.06336267383735365
9.681613602267046,0.09226180652993568
9.691615269211535,0.09219244961409853
9.701616936156027,-0.11583867427386016
9.711618603100517,0.051826517369547576
9.721620270045008,0.09990392866013276
9.731621936989498,0.08786436096581984
9.74162360393399,-0.0330020579748755
9.75162527087848,0.08952319288354826
9.761626937822971,0.027230343849651225
9.77162860476746,0.12527955328146326
9.781630271711952,0.08594266669713782
9.791631938656444,0.08383765597888473
9.801633605600934,-0.0544134943876075
9.811635272545425,0.1094050572173206
9.821636939489915,0.005849478367495175
9.831638606434407,0.014104980304845811
9.841640273378896,0.1037721779744766
9.851641940323388,-0.0100401085020887
9.861643607267878,0.005811566331465425
9.87164527421237,-0.03151763038122376
9.881646941156859,0.011183485126012053
9.89164860810135,0.05486079124343224
9.901650275045842,-0.0851155251882077
9.911651941990332,-0.08422876155067359
9.921653608934824,0.43521763306296707
9.931655275879313,1.448805413217367
9.941656942823805,-0.3723092033984344
9.951658609768295,-0.11733410748910406
9.961660276712786,-0.06522689802591851
9.971661943657276,-0.012044976181898332
9.981663610601768,0.018391532817188385
9.991665277546257,0.12004947024675205
10.001666944490749,-0.0075026153829449655
10.01166861143524,-0.024442934792445106
10.02167027837973,0.0025900834186690525
10.031671945324222,-0.055114060987780884
10.041673612268712,0.03537063432430685
10.051675279213203,0.02795251102739586
10.061676946157693,-0.010892670406295834
10.071678613102184,0.01661815969284966
10.081680280046674,0.007857253262242545
10.091681946991166,0.06608078553959634
10.101683613935656,0.07488723807961095
10.111685280880147,-0.078066520202342
10.121686947824637,0.0910332667661878
10.131688614769129,0.02634787419794241
10.14169028171362,-0.02728088405217465
10.15169194865811,7.953963913801335e-05
10.161693615602601,-0.03898295529209626
10.171695282547091,0.014825375640909005
10.181696949491583,-0.07999222754357108
10.191698616436073,-0.050479853873589345
10.201700283380564,-0.054689087683028825
10.211701950325054,-0.05041724334486465
10.221703617269545,0.004990005625957188
10.231705284214035,-0.08017536568868491
10.241706951158527,-0.002942722357344968
10.251708618103018,-0.05628466677295154
10.261710285047508,-0.03327769146433296
10.271711951992,-0.027453887118373932
10.28171361893649,-0.006900396864080283
10.291715285880981,-0.016716279633611712
10.30171695282547,-0.045254321798538194
10.311718619769962,0.04909868982254056
10.321720286714452,-0.12468984806772096
10.331721953658944,0.026847191263719435
10.341723620603434,-0.05158572322623727
10.351725287547925,0.004147907334832959
10.361726954492417,-0.07270559884622352
10.371728621436906,-0.04260398530170234
10.381730288381398,0.01165062719453843
10.391731955325888,-0.09862233177704607
10.40173362227038,-0.02542398021179828
10.41173528921487,-0.1076645561512434
10.42173695615936,-0.03062187396511172
10.43173862310385,0.03776163669363854
10.441740290048342,-0.10388557748477073
10.451741956992832,-0.116042448740809
10.461743623937323,-0.09929356539957235
10.471745290881813,-0.11229693418414274
10.481746957826305,-0.04358919979255602
10.491748624770796,-0.0458488180397984
10.501750291715286,-0.06791790195806222
10.511751958659778,-0.07477458968560759
10.521753625604267,-0.013684571273329185
10.531755292548759,-0.056509942066130886
10.541756959493249,-0.04257138305437623
10.55175862643774,-0.12904404289356383
10.56176029338223,-0.1681015278340328
10.571761960326722,-0.16052357535364972
10.581763627271211,-0.11803152666294639
10.591765294215703,-0.16430684881121366
10.601766961160195,-0.06240080662772369
10.611768628104684,-0.1216885681654879
10.621770295049176,-0.13223869282160924
10.631771961993666,-0.09344271461716698
10.641773628938157,-0.020754879469843196
10.651775295882647,-0.15157933735868617
10.661776962827139,-0.10528175778343256
10.671778629771628,-0.35310172940444623
10.68178029671612,0.46214773434733575
10.69178196366061,1.3970621751657222
10.701783630605101,-0.5421483421001736
10.711785297549593,-0.2285288324859396
10.721786964494083,-0.09697128251093676
10.731788631438574,-0.06653162468444314
10.741790298383064,-0.09284644239870177
10.751791965327556,-0.24455969640837644
10.761793632272045,-0.059011365239107764
10.771795299216537,-0.13007209451660867
10.781796966161027,-0.18470033192902058
10.791798633105518,-0.14839753106702996
10.801800300050008,-0.07004415257382518
10.8118019669945,-0.1750524884061155
10.82180363393899,-0.21506844979996972
10.831805300883481,-0.16484651813227508
10.841806967827972,-0.15217764269174772
10.851808634772462,-0.11208044026274251
10.861810301716954,-0.20359089633819144
10.871811968661444,-0.14476947058759954
10.881813635605935,-0.10742080037099054
10.891815302550425,-0.0646224046125512
10.901816969494917,-0.1904917678405281
10.911818636439406,-0.1294500706282397
10.921820303383898,-0.13424546368096188
10.931821970328388,-0.13228468309890035
10.94182363727288,-0.10577564736930661
10.95182530421737,-0.1745437262821133
10.96182697116186,-0.14333033671975662
10.971828638106352,-0.16140505262896593
10.981830305050842,-0.24767146078679422
10.991831971995333,-0.13944348081999802
11.001833638939823,-0.1903775534186473
11.011835305884315,-0.0014850643974452515
11.021836972828805,-0.09965514805768708
11.031838639773296,-0.1383653291659889
11.041840306717786,-0.10126447682331326
11.051841973662277,-0.10103720292783322
11.061843640606769,-0.1782428995015361
11.071845307551259,-0.20533718491261965
11.08184697449575,-0.195187910870279
11.09184864144024,-0.09495283968691866
11.101850308384732,-0.12206958738371809
11.111851975329222,-0.17197976894916403
11.121853642273713,-0.17450625775987666
11.131855309218203,-0.2377044827645518
11.141856976162694,-0.18108364270043448
11.151858643107184,-0.2718705543893975
11.161860310051676,-0.21680815309753776
11.171861976996166,-0.23903751002857457
11.181863643940657,-0.16765053786325373
11.191865310885149,-0.2099114575081785
11.201866977829638,-0.26109343001101715
11.21186864477413,-0.21859131647706068
11.22187031171862,-0.2036468797405455
11.231871978663111,-0.23061864876421712
11.241873645607601,-0.16432659214090536
11.251875312552093,-0.11601899772145054
11.261876979496583,-0.21144001882323268
11.271878646441074,-0.23407154668071856
11.281880313385564,-0.2009397277050954
11.291881980330055,-0.1908598417329469
11.301883647274547,-0.2096096015893513
11.311885314219037,-0.22978693524504087
11.321886981163528,-0.18787354385532604
11.331888648108018,-0.16337659500100643
11.34189031505251,-0.23340277560677453
11.351891981997,-0.2779192374884392
11.361893648941491,-0.19366618226567092
11.37189531588598,-0.2694718054677867
11.381896982830472,-0.2713099147567333
11.391898649774962,-0.21110980299527685
11.401900316719454,-0.24445665363847852
11.411901983663945,-0.1708759490229831
11.421903650608435,-0.2299605786862026
11.431905317552927,-0.4425791987056058
11.441906984497416,0.29231073090344073
11.451908651441908,1.3613803844548142
11.461910318386398,-0.5745362191602343
11.47191198533089,-0.382166933799375
11.481913652275379,-0.19812112436931048
11.49191531921987,-0.28822306199840764
11.50191698616436,-0.2166572799377449
11.511918653108852,-0.20493563920950508
11.521920320053344,-0.2608367454065821
11.531921986997833,-0.1996584829844576
11.541923653942325,-0.19379618611839183
11.551925320886815,-0.2132121929745711
11.561926987831306,-0.24237851911119504
11.571928654775796,-0.25946712492101154
11.581930321720288,-0.21222364274018435
11.591931988664777,-0.27722826702942993
11.601933655609269,-0.2531633550477918
11.611935322553759,-0.23123410371524597
11.62193698949825,-0.2636285485229019
11.63193865644274,-0.2654608590672785
11.641940323387232,-0.23321299696742204
11.651941990331723,-0.26330004981569644
11.661943657276213,-0.24788039108028986
11.671945324220705,-0.17527549321210995
11.681946991165194,-0.17708260565406786
11.691948658109686,-0.31239209853847794
11.701950325054176,-0.3700747106841064
11.711951991998667,-0.29007348153345125
11.721953658943157,-0.26240167581959084
11.731955325887649,-0.292297060670859
11.741956992832138,-0.2829826960802796
11.75195865977663,-0.24080654892860004
11.761960326721121,-0.29207752748985966
11.771961993665611,-0.21867593816860287
11.781963660610103,-0.21932345884257048
11.791965327554593,-0.23657713703027639
11.801966994499084,-0.2871309751532975
11.811968661443574,-0.33565092127160007
11.821970328388065,-0.22649450481296665
11.831971995332555,-0.34496617272815266
11.841973662277047,-0.25933782857910287
11.851975329221537,-0.286188791439554
11.861976996166028,-0.3930972428624937
11.87197866311052,-0.3235737223556841
11.88198033005501,-0.31557098843735587
11.891981996999501,-0.24805126673098943
11.90198366394399,-0.19614069989792637
11.911985330888482,-0.39057832083228516
11.921986997832972,-0.29631005198149735
11.931988664777464,-0.25593636150547167
11.941990331721954,-0.2454572337813206
11.951991998666445,-0.31669787981722575
11.961993665610935,-0.19953386625477842
11.971995332555426,-0.2235008860548433
11.981996999499916,-0.32710850823408827
11.991998666444408,-0.3095027458814388
12.0020003333889,-0.3302995511826821
12.01200200033339,-0.2392470321588249
12.02200366727788,-0.29041950569059655
12.03200533422237,-0.2682647986630896
12.042007001166862,-0.4165479162462774
12.052008668111352,-0.27200839466316523
12.062010335055843,-0.3442893171731746
12.072012002000333,-0.2962003332170709
12.082013668944825,-0.3062315386217182
12.092015335889315,-0.4077487171786219
12.102017002833806,-0.291828871534026
12.112018669778298,-0.23520022894785902
12.122020336722787,-0.3206950992438544
12.132022003667279,-0.3197050625317868
12.142023670611769,-0.3163168016566172
12.15202533755626,-0.3232158766232729
12.16202700450075,-0.34237817669611936
12.172028671445242,-0.30221847682712655
12.182030338389731,-0.5121926832296296
12.192032005334223,0.24182395539215437
12.202033672278713,1.2754643833777557
12.212035339223204,-0.6717052927099975
12.222037006167696,-0.41856552942602476
12.232038673112186,-0.3355808227733647
12.242040340056677,-0.35063794574509866
12.252042007001167,-0.2111070702333792
12.262043673945659,-0.2919686730437228
12.272045340890148,-0.34028397412637823
12.28204700783464,-0.28570301870108805
12.29204867477913,-0.36883402217582145
12.302050341723621,-0.3778439085475169
12.312052008668111,-0.3143651792337535
12.322053675612603,-0.413036169712668
12.332055342557092,-0.27790778636057467
12.342057009501584,-0.38118576451187863
12.352058676446076,-0.3767081896856291
12.362060343390565,-0.33057299831214404
12.372062010335057,-0.435867642797369
12.382063677279547,-0.38189943477987176
12.392065344224038,-0.31766065916843184
12.402067011168528,-0.3886760366485127
12.41206867811302,-0.33807642918720593
12.42207034505751,-0.3114782015987148
12.432072012002001,-0.37596077677636386
12.44207367894649,-0.4237167549320524
12.452075345890982,-0.25948503880998774
12.462077012835474,-0.364989603744366
12.472078679779964,-0.26344637690110617
12.482080346724455,-0.3505489271609158
12.492082013668945,-0.4115342729920045
12.502083680613437,-0.3317326246379857
12.512085347557926,-0.32389762948381823
12.522087014502418,-0.4130832295901026
12.532088681446908,-0.3158041323642509
12.5420903483914,-0.4160764942172085
12.552092015335889,-0.37198944453209926
12.56209368228038,-0.35972904224037744
12.572095349224872,-0.3406566069893666
12.582097016169362,-0.3468198002391908
12.592098683113853,-0.2189854660882146
12.602100350058343,-0.38060903903591725
12.612102017002835,-0.3559317046389962
12.622103683947325,-0.38523468450829335
12.632105350891816,-0.36985798709460554
12.642107017836306,-0.35665591661288865
12.652108684780798,-0.29694986947461843
12.662110351725287,-0.3550567387550665
12.672112018669779,-0.35937685397568836
12.682113685614269,-0.43047600617245985
12.69211535255876,-0.41922362118693673
12.702117019503252,-0.4027896195901391
12.712118686447742,-0.4201624828577468
12.722120353392233,-0.4252993264488377
12.732122020336723,-0.35270368920389644
12.742123687281214,-0.33343082864580154
12.752125354225704,-0.395938654478014
12.762127021170196,-0.3639119852675069
12.772128688114686,-0.39081883669409145
12.782130355059177,-0.32394342566048473
12.792132022003667,-0.43733720830773126
12.802133688948159,-0.3191785020207255
12.81213535589265,-0.28411798912703445
12.82213702283714,-0.32894037442469193
12.832138689781631,-0.39254257269083614
12.842140356726121,-0.3577531643056202
12.852142023670613,-0.4527617886054718
12.862143690615103,-0.420217932273898
12.872145357559594,-0.3874893552571063
12.882147024504084,-0.3980348410317329
12.892148691448575,-0.4290453616228514
12.902150358393065,-0.3556585996775369
12.912152025337557,-0.43177708097257017
12.922153692282048,-0.3472359983299266
12.932155359226538,-0.5810018663341111
12.94215702617103,0.1102795892133716
12.95215869311552,1.1171604126855423
12.962160360060011,-0.7619818643402418
12.9721620270045,-0.5386555344412298
12.982163693948992,-0.4031332866542895
12.992165360893482,-0.3995184127313128
13.002167027837974,-0.38548566462283795
13.012168694782464,-0.4052508987612011
13.022170361726955,-0.5407797562089838
13.032172028671445,-0.326513581992781
13.042173695615936,-0.4207480260945366
13.052175362560428,-0.4356726078319853
13.062177029504918,-0.4573326850078696
13.07217869644941,-0.4991041029543881
13.0821803633939,-0.39364100052872103
13.09218203033839,-0.4555080037598546
13.10218369728288,-0.41552124146761166
13.112185364227372,-0.44439414828264595
13.122187031171862,-0.49369087408892987
13.132188698116353,-0.453339299823819
13.142190365060843,-0.39781495404363587
13.152192032005335,-0.44696965493614266
13.162193698949826,-0.3607439131585385
13.172195365894316,-0.4163141014615189
13.182197032838808,-0.4110951847042983
13.192198699783297,-0.4590237215908813
13.202200366727789,-0.4039987741045304
13.212202033672279,-0.33887047337423865
13.22220370061677,-0.4060089470344205
13.23220536756126,-0.4723054374451269
13.242207034505752,-0.3734415274281726
13.252208701450241,-0.4699431716599636
13.262210368394733,-0.427491364465051
13.272212035339225,-0.44082033824024425
13.282213702283714,-0.4192870895894716
13.292215369228206,-0.3859977168387921
13.302217036172696,-0.5075294989565352
13.312218703117187,-0.46841019915956955
13.322220370061677,-0.4568051163667185
13.332222037006169,-0.38876621981935966
13.342223703950658,-0.4911038037008825
13.35222537089515,-0.4564045357013379
13.36222703783964,-0.316102309072259
13.372228704784131,-0.3533427775759965
13.382230371728621,-0.4358989178835281
13.392232038673113,-0.4283323120696326
13.402233705617604,-0.4959036721064011
13.412235372562094,-0.371459118709568
13.422237039506586,-0.5171289670991481
13.432238706451075,-0.4479010354332722
13.442240373395567,-0.33309566348487896
13.452242040340057,-0.5027186876477748
13.462243707284548,-0.44537685649812037
13.472245374229038,-0.5141118054822621
13.48224704117353,-0.5173273691310775
13.49224870811802,-0.5143604725045873
13.502250375062511,-0.47116437574615483
13.512252042007002,-0.3756024910040182
13.522253708951492,-0.4420106510777582
13.532255375895984,-0.4126531663742696
13.542257042840474,-0.4840629625902497
13.552258709784965,-0.5162790669931638
13.562260376729455,-0.46857793585321633
13.572262043673947,-0.3874902283193109
13.582263710618436,-0.4451829383581336
13.592265377562928,-0.4416904471666929
13.602267044507418,-0.528558154155311
13.61226871145191,-0.5153403581155871
13.6222703783964,-0.4615871471588283
13.63227204534089,-0.4023666422117167
13.642273712285382,-0.4532986323429886
13.652275379229872,-0.5004219192904252
13.662277046174363,-0.4894103376417785
13.672278713118853,-0.4915395511005537
13.682280380063345,-0.6416198859415723
13.692282047007835,0.07631843448004272
13.702283713952326,1.0499338876033264
13.712285380896816,-0.8308861157934265
13.722287047841307,-0.5284368243975455
13.732288714785797,-0.37625403911585314
13.742290381730289,-0.5447256287171824
13.75229204867478,-0.5323580833417599
13.76229371561927,-0.5117529986548538
13.772295382563762,-0.3878129472768539
13.782297049508252,-0.48835182287821816
13.792298716452743,-0.3936479585250952
13.802300383397233,-0.5373064460928255
13.812302050341724,-0.3789896609330144
13.822303717286214,-0.5115283756238008
13.832305384230706,-0.6009694360337998
13.842307051175196,-0.5003284859144518
13.852308718119687,-0.49284749857570676
13.862310385064179,-0.45380045119258894
13.872312052008668,-0.527494924826114
13.88231371895316,-0.5171959756386573
13.89231538589765,-0.5185993831970063
13.902317052842141,-0.46498802397312383
13.912318719786631,-0.4658544472735479
13.922320386731123,-0.474319495107357
13.932322053675612,-0.4768873381800012
13.942323720620104,-0.48491406407138804
13.952325387564594,-0.42117583761234434
13.962327054509085,-0.4604720381144447
13.972328721453577,-0.4237311839919999
13.982330388398067,-0.48919444119580624
13.992332055342558,-0.4694679074665686
14.002333722287048,-0.5702269252326478
14.01233538923154,-0.4787011807314649
14.02233705617603,-0.48352132354882665
14.032338723120521,-0.4352125466223355
14.04234039006501,-0.4004653395485685
14.052342057009502,-0.5251642243421222
14.062343723953992,-0.49793052119312065
14.072345390898484,-0.5204482167640366
14.082347057842973,-0.4634541482856782
14.092348724787465,-0.5246026946098733
14.102350391731957,-0.49185437556030076
14.112352058676446,-0.45053487568595385
14.122353725620938,-0.5302023805957528
14.132355392565428,-0.5178429354000001
14.14235705950992,-0.5362385803809727
14.152358726454409,-0.5133977067417762
14.1623603933989,-0.4649622048982254
14.17236206034339,-0.41251854922835807
14.182363727287882,-0.5749104925663608
14.192365394232372,-0.5436768235537092
14.202367061176863,-0.5447022263671343
14.212368728121355,-0.4045513883761506
14.222370395065845,-0.4989922516990891
14.232372062010336,-0.5087478893322751
14.242373728954826,-0.43310221668328713
14.252375395899318,-0.44873196551276995
14.262377062843807,-0.4173168567338002
14.272378729788299,-0.5315310609500158
14.282380396732789,-0.5322075941511425
14.29238206367728,-0.41824177305710186
14.30238373062177,-0.4568050609904358
14.312385397566262,-0.5461455222368308
14.322387064510753,-0.5043185265964807
14.332388731455243,-0.49084419448560995
14.342390398399735,-0.45811462815168447
14.352392065344224,-0.4296251289170498
14.362393732288716,-0.4980051035686699
14.372395399233206,-0.5026478865745061
14.382397066177697,-0.4577046579470775
14.392398733122187,-0.49720909357208354
14.402400400066679,-0.48849880695538417
14.412402067011168,-0.4841612010256305
14.42240373395566,-0.3966307387274845
14.432405400900151,-0.5235467618129132
14.442407067844641,-0.6903591312339086
14.452408734789133,0.053267180695393004
14.462410401733623,1.0097635414370467
14.472412068678114,-0.930288214857308
14.482413735622604,-0.6233304373299202
14.492415402567095,-0.4098740060643714
14.502417069511585,-0.4180717740334566
14.512418736456077,-0.5278058434791353
14.522420403400567,-0.4713322761183713
14.532422070345058,-0.5741896789965195
14.542423737289548,-0.5265509156941345
14.55242540423404,-0.45523855540273783
14.562427071178531,-0.4365298162211929
14.57242873812302,-0.6033398180671071
14.582430405067512,-0.5372814672365306
14.592432072012002,-0.5624022272608891
14.602433738956494,-0.5001858356357072
14.612435405900984,-0.5160255709730611
14.622437072845475,-0.4754431561554219
14.632438739789965,-0.5266072818579062
14.642440406734456,-0.5244554431792202
14.652442073678946,-0.3751978034366651
14.662443740623438,-0.5583507663438502
14.67244540756793,-0.4554275204684725
14.68244707451242,-0.5407308062766549
14.69244874145691,-0.5236618808010312
14.7024504084014,-0.46982087331900735
14.712452075345892,-0.5018057335030015
14.722453742290382,-0.47120304338622654
14.732455409234873,-0.4534789333517324
14.742457076179363,-0.459162294627992
14.752458743123855,-0.42298587884493344
14.762460410068345,-0.5428554541238622
14.772462077012836,-0.4820448029786444
14.782463743957328,-0.44409903091941205
14.792465410901817,-0.5600049745696034
14.802467077846309,-0.5475541195797621
14.812468744790799,-0.4831914683300693
14.82247041173529,-0.5405409776920203
14.83247207867978,-0.5164396915556252
14.842473745624272,-0.5382451854089133
14.852475412568761,-0.5687599800737058
14.862477079513253,-0.49150530690353644
14.872478746457743,-0.4660323242693737
14.882480413402234,-0.49746827711086544
14.892482080346724,-0.5142767163793438
14.902483747291216,-0.5388991688965874
14.912485414235707,-0.47928100643777705
14.922487081180197,-0.48662973616409116
14.932488748124689,-0.5169302486953482
14.942490415069178,-0.5580938788314925
14.95249208201367,-0.46745752863379286
14.96249374895816,-0.4800713009602945
14.972495415902651,-0.5024562469497027
14.982497082847141,-0.4348264182371492
14.992498749791633,-0.5079925285928444
15.002500416736122,-0.43423553425127065
15.012502083680614,-0.6044002954807154
15.022503750625106,-0.5934402328817654
15.032505417569595,-0.5498409052034706
15.042507084514087,-0.5109051859062359
15.052508751458577,-0.5346788692568756
15.062510418403068,-0.4712451918245345
15.072512085347558,-0.4370194908727595
15.08251375229205,-0.43080663659976864
15.09251541923654,-0.6053863098774956
15.102517086181031,-0.4208947746712056
15.11251875312552,-0.5069160661448865
15.122520420070012,-0.5027301773364069
15.132522087014504,-0.5575321393940974
15.142523753958994,-0.5677009346334998
15.152525420903485,-0.39732218692899574
15.162527087847975,-0.536586024282877
15.172528754792467,-0.48322577213558887
15.182530421736956,-0.4173719659157452
15.192532088681448,-0.48618293261147394
15.202533755625938,-0.745529420394437
15.21253542257043,0.07173874385398746
15.222537089514919,0.9634046119835169
15.23253875645941,-0.8645207946384184
15.2425404234039,-0.6173197418865969
15.252542090348392,-0.4780825025353039
15.262543757292883,-0.46742790023619707
15.272545424237373,-0.4237806523238617
15.282547091181865,-0.5189928084330938
15.292548758126355,-0.44684363269430216
15.302550425070846,-0.5100486616390613
15.312552092015336,-0.45893985586349195
15.322553758959828,-0.44146480245595476
15.332555425904317,-0.5648497063439158
15.342557092848809,-0.5690021107055975
15.352558759793299,-0.4941450054964672
15.36256042673779,-0.454611239991918
15.372562093682282,-0.45452137576112606
15.382563760626772,-0.5407969978117306
15.392565427571263,-0.44465711156825777
15.402567094515753,-0.48292869513067765
15.412568761460244,-0.5145256507997459
15.422570428404734,-0.45967085102762245
15.432572095349226,-0.4984256335234446
15.442573762293716,-0.4838503783849206
15.452575429238207,-0.5543745405140393
15.462577096182697,-0.4879036136919245
15.472578763127188,-0.5924155801429056
15.48258043007168,-0.47894533415852214
15.49258209701617,-0.552494319185568
15.502583763960661,-0.42819917370888266
15.512585430905151,-0.436144614027926
15.522587097849643,-0.5303251725059275
15.532588764794133,-0.5259955098862371
15.542590431738624,-0.5016405063884471
15.552592098683114,-0.585390832448183
15.562593765627605,-0.5496035479164435
15.572595432572095,-0.5668973782884803
15.582597099516587,-0.503682154252243
15.592598766461077,-0.49929978795581204
15.602600433405568,-0.5439141983964461
15.61260210035006,-0.431677941951477
15.62260376729455,-0.45145440333317277
15.632605434239041,-0.6191643758463296
15.64260710118353,-0.4900502314973741
15.652608768128022,-0.6179771519461631
15.662610435072512,-0.44925076209125087
15.672612102017004,-0.5005731230244269
15.682613768961494,-0.4638458138291587
15.692615435905985,-0.5484736394539861
15.702617102850475,-0.45983292089159755
15.712618769794966,-0.49003572654678473
15.722620436739458,-0.4284021306999218
15.732622103683948,-0.5240464447619928
15.74262377062844,-0.4760477140364939
15.752625437572929,-0.47084461483022
15.76262710451742,-0.5113951416545208
15.77262877146191,-0.471087646550741
15.782630438406402,-0.5297267560275354
15.792632105350892,-0.3939447879541658
15.802633772295383,-0.45162177832867073
15.812635439239873,-0.541727008376362
15.822637106184365,-0.5425815966545255
15.832638773128856,-0.4390956932209013
15.842640440073346,-0.6100621148295482
15.852642107017838,-0.423657069257886
15.862643773962327,-0.5122364419281799
15.872645440906819,-0.4883493179931756
15.882647107851309,-0.5265854376296449
15.8926487747958,-0.4370819872567096
15.90265044174029,-0.4804493748822039
15.912652108684782,-0.4881588266001102
15.922653775629271,-0.46718711410680935
15.932655442573763,-0.501628378399639
15.942657109518253,-0.4495388661905624
15.952658776462744,-0.534459069893885
15.962660443407236,-0.44437846149774984
15.972662110351726,-0.7125028013363861
15.982663777296217,-0.015024878491763212
15.992665444240707,0.9895116766716396
16.002667111185197,-0.8955293244921441
16.01266877812969,-0.4820594066616699
16.02267044507418,-0.47379655686803357
16.03267211201867,-0.5109186220586781
16.04267377896316,-0.4846368752567034
16.052675445907653,-0.49337855553261384
16.062677112852143,-0.5515751946864299
16.072678779796632,-0.5115845674456834
16.082680446741126,-0.4879455805799225
16.092682113685616,-0.5265621070704325
16.102683780630105,-0.517141678380802
16.112685447574595,-0.39559531550171906
16.12268711451909,-0.43943539697203576
16.132688781463578,-0.4786997618171461
16.142690448408068,-0.41579379988937964
16.152692115352558,-0.4763359036260793
16.16269378229705,-0.45555478448040515
16.17269544924154,-0.4604627469873151
16.18269711618603,-0.5479681282163759
16.192698783130524,-0.4729492915405201
16.202700450075014,-0.5598225369107052
16.212702117019504,-0.46571245514348547
16.222703783963993,-0.4830122678024836
16.232705450908487,-0.5002297760353871
16.242707117852976,-0.4767435978883464
16.252708784797466,-0.4960195579363929
16.262710451741956,-0.49011764089751386
16.27271211868645,-0.4603215666881119
16.28271378563094,-0.5713846073175051
16.29271545257543,-0.35637880768775204
16.302717119519922,-0.4446841895592113
16.312718786464412,-0.4141440615308508
16.322720453408902,-0.42846429265216496
16.33272212035339,-0.4579471330491122
16.342723787297885,-0.4292641786938799
16.352725454242375,-0.4532297497552529
16.362727121186865,-0.39420600162720676
16.372728788131354,-0.5332062310063871
16.382730455075848,-0.43365360023642974
16.392732122020337,-0.5976908736024239
16.402733788964827,-0.527155840920074
16.41273545590932,-0.33662581593922125
16.42273712285381,-0.46176395202597104
16.4327387897983,-0.4743780243462358
16.44274045674279,-0.4150322359480902
16.452742123687283,-0.3345628554570685
16.462743790631773,-0.5280714463088304
16.472745457576263,-0.4157381302482297
16.482747124520753,-0.43651595369355606
16.492748791465246,-0.4234739463288455
16.502750458409736,-0.43207818939806014
16.512752125354226,-0.5181155593897421
16.522753792298715,-0.434370611181017
16.53275545924321,-0.5475493202833455
16.5427571261877,-0.43451087243848485
16.55275879313219,-0.42125173996800697
16.56276046007668,-0.410428449816889
16.57276212702117,-0.44391365842548663
16.58276379396566,-0.42666109902611504
16.59276546091015,-0.4974133813933167
16.602767127854644,-0.4352235267733755
16.612768794799134,-0.37772397823548043
16.622770461743624,-0.44792846061834046
16.632772128688114,-0.4059827683075048
16.642773795632607,-0.30381583143779967
16.652775462577097,-0.3948983076116936
16.662777129521587,-0.442734815547143
16.67277879646608,-0.456365942253069
16.68278046341057,-0.4869109809428891
16.69278213035506,-0.450863649896355
16.70278379729955,-0.4446303579766949
16.712785464244043,-0.3991390702268582
16.722787131188532,-0.3818993451888645
16.732788798133022,-0.38163120656274274
16.742790465077512,-0.42612737468739975
16.752792132022005,-0.3795043435733077
16.762793798966495,-0.6389895784743079
16.772795465910985,0.054358968403639255
16.782797132855478,1.062860637594172
16.792798799799968,-0.7614439257974477
16.802800466744458,-0.5462073773535371
16.812802133688947,-0.44138523921905737
16.82280380063344,-0.4758674937338037
16.83280546757793,-0.42548885894619815
16.84280713452242,-0.37010762649215606
16.85280880146691,-0.3766587679850059
16.862810468411404,-0.3976802771655798
16.872812135355893,-0.36622587206369195
16.882813802300383,-0.4731332483970729
16.892815469244876,-0.38717417229073176
16.902817136189366,-0.4679647941786088
16.912818803133856,-0.4393572864328329
16.922820470078346,-0.4367526410144974
16.93282213702284,-0.34753975304185825
16.94282380396733,-0.38187296654491143
16.95282547091182,-0.5011217958428951
16.96282713785631,-0.4206279302965128
16.972828804800802,-0.48125143023314026
16.98283047174529,-0.3961716133539248
16.99283213868978,-0.3447517417557632
17.002833805634275,-0.4120189235208551
17.012835472578764,-0.4441620960374955
17.022837139523254,-0.505989205672102
17.032838806467744,-0.37082246749893444
17.042840473412237,-0.380047265971055
17.052842140356727,-0.4033058374624759
17.062843807301217,-0.4007394077434397
17.072845474245707,-0.3594374008553128
17.0828471411902,-0.4082862850732433
17.09284880813469,-0.29827762813573083
17.10285047507918,-0.3919860549269371
17.112852142023673,-0.41636264547587587
17.122853808968163,-0.43703684610241267
17.132855475912653,-0.39837336386029765
17.142857142857142,-0.38709638264566165
17.152858809801636,-0.3535224470755378
17.162860476746125,-0.4359497013008949
17.172862143690615,-0.4052112353924048
17.182863810635105,-0.4635764633670503
17.1928654775796,-0.3897101538750419
17.202867144524088,-0.4351113777292843
17.212868811468578,-0.42885682593181607
17.222870478413068,-0.37512762323090354
17.23287214535756,-0.38594558974309384
17.24287381230205,-0.47211553452663685
17.25287547924654,-0.38620139936206194
17.262877146191034,-0.364337283822861
17.272878813135524,-0.3534576860902789
17.282880480080014,-0.33702731455728274
17.292882147024503,-0.361594684579076
17.302883813968997,-0.36887335424957823
17.312885480913486,-0.37038946519081606
17.322887147857976,-0.354692246384586
17.332888814802466,-0.37724127704891197
17.34289048174696,-0.3844147566127358
17.35289214869145,-0.41910462296038553
17.36289381563594,-0.3560114749685669
17.372895482580432,-0.33945311453816657
17.382897149524922,-0.35077807029631225
17.392898816469412,-0.40301066596012747
17.4029004834139,-0.3593832043765018
17.412902150358395,-0.33464190765069185
17.422903817302885,-0.4044490928223889
17.432905484247375,-0.35417791360401696
17.442907151191864,-0.305637446745483
17.452908818136358,-0.3534082727522043
17.462910485080847,-0.34953337989900507
17.472912152025337,-0.39418289253487065
17.48291381896983,-0.2632364350468094
17.49291548591432,-0.4573725900668718
17.50291715285881,-0.357331461898584
17.5129188198033,-0.3791436265592861
17.522920486747793,-0.3683224840662523
17.532922153692283,-0.432217734937902
17.542923820636773,-0.3995722989321736
17.552925487581263,-0.3290552347045835
17.562927154525756,-0.5373541151244828
17.572928821470246,0.16977484019956218
17.582930488414735,1.216902679926032
17.59293215535923,-0.6969909643419899
17.60293382230372,-0.49045446740440735
17.61293548924821,-0.37909262481580347
17.622937156192698,-0.3298709179757175
17.63293882313719,-0.3207266745527537
17.64294049008168,-0.40000801357735827
17.65294215702617,-0.29181130265789884
17.66294382397066,-0.3371285547403166
17.672945490915154,-0.3729185871585865
17.682947157859644,-0.33618333954518426
17.692948824804134,-0.38291494216583616
17.702950491748627,-0.3233820187268793
17.712952158693117,-0.29628758245209197
17.722953825637607,-0.3345450082687118
17.732955492582096,-0.4377464693160198
17.74295715952659,-0.28560300077295087
17.75295882647108,-0.2870298609154721
17.76296049341557,-0.31869773920811106
17.77296216036006,-0.29888159120842067
17.782963827304552,-0.26576794153645883
17.792965494249042,-0.330689091240852
17.802967161193532,-0.29296994878105
17.812968828138025,-0.32740974784397237
17.822970495082515,-0.29214389612971114
17.832972162027005,-0.2909049070731057
17.842973828971495,-0.262875105010163
17.852975495915988,-0.33644252494126353
17.862977162860478,-0.264198837764493
17.872978829804968,-0.3084995563337964
17.882980496749457,-0.32722168663933265
17.89298216369395,-0.39920019419325653
17.90298383063844,-0.31372568452941996
17.91298549758293,-0.30176950746251013
17.92298716452742,-0.32698572156070277
17.932988831471913,-0.24576304537069943
17.942990498416403,-0.21648679746630745
17.952992165360893,-0.24898553558091555
17.962993832305386,-0.267707824036833
17.972995499249876,-0.29674288366916807
17.982997166194366,-0.25171202774488494
17.992998833138856,-0.32175421550694294
18.00300050008335,-0.3485818355029032
18.01300216702784,-0.23699508299218053
18.02300383397233,-0.19920836581025986
18.03300550091682,-0.3504491227305578
18.04300716786131,-0.36052375161287964
18.0530088348058,-0.2903947097981332
18.06301050175029,-0.2969232694338982
18.073012168694785,-0.324203156023808
18.083013835639274,-0.23747524591609476
18.093015502583764,-0.2896611144353445
18.103017169528254,-0.25582783714898344
18.113018836472747,-0.26110595436851064
18.123020503417237,-0.33199749079848573
18.133022170361727,-0.29098615107297954
18.143023837306217,-0.31555125561895014
18.15302550425071,-0.30032052115155844
18.1630271711952,-0.2697930823049909
18.17302883813969,-0.3900408414475034
18.183030505084183,-0.3470051180888496
18.193032172028673,-0.4458446285275345
18.203033838973163,-0.34890800750608203
18.213035505917652,-0.256068894903577
18.223037172862146,-0.281055604054162
18.233038839806635,-0.2372483509427566
18.243040506751125,-0.31095929035753495
18.253042173695615,-0.22387015060800594
18.26304384064011,-0.27035676017202653
18.273045507584598,-0.2937164455273495
18.283047174529088,-0.30152182380613346
18.29304884147358,-0.23894196337919965
18.30305050841807,-0.30476759291313904
18.31305217536256,-0.12518638752204903
18.32305384230705,-0.2819819120395886
18.333055509251544,-0.19535968438825857
18.343057176196034,-0.26473551027972686
18.353058843140523,-0.29424236459409137
18.363060510085013,-0.27013513556669333
18.373062177029507,-0.22966279462734915
18.383063843973996,-0.4380934345883291
18.393065510918486,0.2796134793771315
18.40306717786298,1.263879254111006
18.41306884480747,-0.6318300515407542
18.42307051175196,-0.37361857685586314
18.43307217869645,-0.25729435463681144
18.443073845640942,-0.1779428244904281
18.453075512585432,-0.21824579363826951
18.463077179529922,-0.21341877584494162
18.47307884647441,-0.2851564808058713
18.483080513418905,-0.28515281800946146
18.493082180363395,-0.27083040115172186
18.503083847307884,-0.15566986685415263
18.513085514252378,-0.21554204015958792
18.523087181196868,-0.22717401483175576
18.533088848141357,-0.21192752951211571
18.543090515085847,-0.20711145775518824
18.55309218203034,-0.23824420244447295
18.56309384897483,-0.17788368091386936
18.57309551591932,-0.19814959969655774
18.58309718286381,-0.15287707148583143
18.593098849808303,-0.17238278308176452
18.603100516752793,-0.21805924264509957
18.613102183697283,-0.25385453713353057
18.623103850641776,-0.15878216018432062
18.633105517586266,-0.18580997386761583
18.643107184530756,-0.21475088876282708
18.653108851475245,-0.2094562071709831
18.66311051841974,-0.18631094028698197
18.67311218536423,-0.2128834349654888
18.68311385230872,-0.17627642330101248
18.693115519253208,-0.26611068884073974
18.7031171861977,-0.19250297078766493
18.71311885314219,-0.20108164950914958
18.72312052008668,-0.13208478316365738
18.73312218703117,-0.26075548367294205
18.743123853975664,-0.18425670740920264
18.753125520920154,-0.22170728708700993
18.763127187864644,-0.17942485652702198
18.773128854809137,-0.23823594660036138
18.783130521753627,-0.21751162561542603
18.793132188698117,-0.18559262646881902
18.803133855642606,-0.2310253733123156
18.8131355225871,-0.16719002045975057
18.82313718953159,-0.21605738614252862
18.83313885647608,-0.224384543311943
18.84314052342057,-0.2812288037566921
18.853142190365062,-0.23634327078406872
18.863143857309552,-0.1605973183810216
18.873145524254042,-0.20231332143993905
18.883147191198535,-0.17111448133666962
18.893148858143025,-0.2486726922815099
18.903150525087515,-0.14082734903805905
18.913152192032005,-0.202255494876382
18.923153858976498,-0.2108094474376775
18.933155525920988,-0.14952624449752777
18.943157192865478,-0.09688568428349109
18.953158859809967,-0.1112087419937996
18.96316052675446,-0.17551416892052066
18.97316219369895,-0.1328292821105125
18.98316386064344,-0.07733613253005134
18.993165527587934,-0.05766440346194002
19.003167194532423,-0.20845010565732408
19.013168861476913,-0.1512573720067099
19.023170528421403,-0.13272592795321383
19.033172195365896,-0.008260067466206306
19.043173862310386,-0.10664901411888797
19.053175529254876,-0.13266983572699656
19.063177196199366,-0.14456713535440685
19.07317886314386,-0.08974688186799792
19.08318053008835,-0.1893017951859051
19.09318219703284,-0.06850894060317853
19.103183863977332,-0.10395957000749759
19.11318553092182,-0.11082547714517252
19.12318719786631,-0.19436717040745205
19.1331888648108,-0.11562888973050511
19.143190531755295,-0.020626419832962525
19.153192198699784,-0.013009857573836589
19.163193865644274,-0.1247482340122013
19.173195532588764,-0.1604366586977799
19.183197199533257,-0.08786390761604979
19.193198866477747,-0.10114766358750023
19.203200533422237,-0.08988009349822805
19.21320220036673,-0.09393373832007573
19.22320386731122,-0.2857884611542519
19.23320553425571,0.378208811293502
19.2432072012002,1.3608121091824041
19.253208868144693,-0.561779017332223
19.263210535089183,-0.18053935336757612
19.273212202033672,-0.017818332706741283
19.283213868978162,-0.05274462027531858
19.293215535922656,-0.21425148167285468
19.303217202867145,-0.21004118767572855
19.313218869811635,-0.14515658356948938
19.32322053675613,-0.09884238328348442
19.33322220370062,-0.21521963488258467
19.343223870645108,-0.1474319239572179
19.353225537589598,-0.09157112951435968
19.36322720453409,-0.09048959088595272
19.37322887147858,-0.1091528031455474
19.38323053842307,-0.10110529630928704
19.39323220536756,-0.053197126832649363
19.403233872312054,-0.16408971179684478
19.413235539256544,-0.11035833517916334
19.423237206201033,-0.0885407730247958
19.433238873145523,-0.12698450141204345
19.443240540090017,-0.12789302909669875
19.453242207034506,-0.07883381763787067
19.463243873978996,-0.07173085799170871
19.47324554092349,-0.10141463527808811
19.48324720786798,-0.05265040336333658
19.49324887481247,-0.08896638648200438
19.50325054175696,-0.12581689573630794
19.513252208701452,-0.05888224181998028
19.523253875645942,0.01807910620789148
19.53325554259043,-0.052266563889205336
19.54325720953492,-0.12649520633186978
19.553258876479415,-0.0970078440864644
19.563260543423905,-0.10126007010881766
19.573262210368394,-0.1579649947879881
19.583263877312888,-0.1558765513280032
19.593265544257378,-0.13692172173855904
19.603267211201867,-0.17205678048956127
19.613268878146357,-0.10164771500466332
19.62327054509085,0.0017260156060307438
19.63327221203534,-0.08096669298367955
19.64327387897983,-0.049053761219330715
19.65327554592432,-0.009688972340883319
19.663277212868813,-0.06483190228187607
19.673278879813303,-0.07172408454427602
19.683280546757793,-0.06502281664697405
19.693282213702286,-0.06663833897299815
19.703283880646776,0.0354773311716788
19.713285547591266,-0.06148426709226722
19.723287214535755,-0.05445028327780318
19.73328888148025,0.019620165549977954
19.74329054842474,-0.12314658270398066
19.75329221536923,-0.05761220016671648
19.763293882313718,0.03448012382396617
19.77329554925821,-0.00040371968489312515
19.7832972162027,-0.03472157290903296
19.79329888314719,0.005978039094946971
19.803300550091684,-0.018050938840688792
19.813302217036174,-0.0943067559871284
19.823303883980664,0.019110841408695175
19.833305550925154,-0.03169195557844148
19.843307217869647,0.08468014424177761
19.853308884814137,0.03321405833500245
19.863310551758627,0.03549318199460086
19.873312218703116,-0.0018610432116441984
19.88331388564761,-0.08715534151986602
19.8933155525921,-0.05457123222312845
19.90331721953659,-0.0645618533736169
19.913318886481083,-0.016608705515154518
19.923320553425572,-0.06393534586529885
19.933322220370062,0.017226841816099535
19.943323887314552,-0.04372914780838521
19.953325554259045,-0.01940281693462964
19.963327221203535,-0.04480295568717767
19.973328888148025,0.00567531508060035
19.983330555092515,0.040086377426696934
19.993332222037008,-0.011191136503058058
20.003333888981498,0.021390016825404586
20.013335555925988,-0.0008102802967574129
20.02333722287048,0.040130200279789426
20.03333888981497,-5.439303638047222e-05
20.04334055675946,0.03147378975859898
20.05334222370395,-0.013880404959121455
20.063343890648444,0.03518610882690498
20.073345557592933,0.07053903019616978
20.083347224537423,0.012021919523791672
20.093348891481913,0.0149985339414323
20.103350558426406,-0.23982602363734848
20.113352225370896,0.4958569971626827
20.123353892315386,1.48289183162285
20.133355559259876,-0.3456635825737831
20.14335722620437,-0.11779450621096335
20.15335889314886,-0.009873477511944444
20.16336056009335,0.06692438632465404
20.173362227037842,-0.021242204489031292
20.18336389398233,-0.002738795927191482
20.19336556092682,0.03054044606453722
20.20336722787131,0.11164884531233144
20.213368894815805,-0.0036471345414888154
20.223370561760294,-0.01047603758612961
20.233372228704784,0.09428633150151974
20.243373895649274,0.08973158010859167
20.253375562593767,0.029751140822641423
20.263377229538257,0.09138789850474305
20.273378896482747,-0.01795593762471487
20.28338056342724,0.16075744927400643
20.29338223037173,0.03552613649947896
20.30338389731622,0.04583424145190745
20.31338556426071,-0.03228525933831857
20.323387231205203,0.08991791809775725
20.333388898149693,0.13101602651776217
20.343390565094182,0.009101986083689964
20.353392232038672,0.05758903028418767
20.363393898983166,0.01745461243880741
20.373395565927655,0.04708858509351156
20.383397232872145,0.014998484452997854
20.39339889981664,0.04906664037776766
20.40340056676113,0.060430704412145445
20.413402233705618,0.04198900484091951
20.423403900650108,0.06893759614455487
20.4334055675946,0.06602861585382849
20.44340723453909,0.010404805685216012
20.45340890148358,0.0917512881864745
20.46341056842807,0.11453539661968465
20.473412235372564,-0.0489162224036631
20.483413902317054,-0.025226438242226618
20.493415569261543,0.0316781152813438
20.503417236206037,0.06738842759036104
20.513418903150527,0.07508158988191053
20.523420570095016,0.13756662997243196
20.533422237039506,0.03565618319530393
20.543423903984,0.07220016322417513
20.55342557092849,0.08504569773010998
20.56342723787298,0.11211976018040158
20.57342890481747,0.11069759697180172
20.583430571761962,0.14011833526477974
20.593432238706452,0.10342929689393578
20.60343390565094,0.08443622111634015
20.613435572595435,0.08970192526915557
20.623437239539925,0.02485385326412
20.633438906484415,0.14677089440764685
20.643440573428904,0.07004956825586962
20.653442240373398,0.10119085863939954
20.663443907317887,0.09775853187437815
20.673445574262377,0.06604593014951406
20.683447241206867,0.048463547243630466
20.69344890815136,0.0686496151120807
20.70345057509585,0.1227004118048974
20.71345224204034,0.07634991894453111
20.723453908984833,0.13269768908888543
20.733455575929323,0.08875874096914324
20.743457242873813,0.0913739938977911
20.753458909818303,0.23087149164024362
20.763460576762796,0.15107290328628725
20.773462243707286,0.1520240238392626
20.783463910651776,0.21437558369999038
20.793465577596265,0.142569606470835
20.80346724454076,0.16562131610974704
20.81346891148525,0.11351885400978687
20.82347057842974,0.11535319652503984
20.83347224537423,0.11982236739540619
20.84347391231872,0.18124771211337765
20.85347557926321,0.15601211890832156
20.8634772462077,0.0635278745024772
20.873478913152194,0.11908634213593003
20.883480580096684,0.16332721248243287
20.893482247041174,0.08482345220542029
20.903483913985664,0.09581815269823593
20.913485580930157,0.19127216395822408
20.923487247874647,0.0612329981273701
20.933488914819137,0.07072628172588367
20.943490581763626,0.13241364253495008
20.95349224870812,0.14040055085534406
20.96349391565261,0.039284154902610655
20.9734955825971,0.1254821954913375
20.983497249541593,0.1151524866849773
20.993498916486082,0.14411629790199296
21.003500583430572,0.1601318826468861
21.013502250375062,-0.02128091808405531
21.023503917319555,0.6450359824129026
21.033505584264045,1.725624238875731
21.043507251208535,-0.1597801802289653
21.053508918153025,0.00836629779208909
21.063510585097518,0.04239629222064108
21.073512252042008,0.03813826508207077
21.083513918986498,0.12374977227063538
21.09351558593099,0.2484623865907228
21.10351725287548,0.10938319359682751
21.11351891981997,0.11054858949611834
21.12352058676446,0.034528252828173456
21.133522253708954,0.19575423513202092
21.143523920653443,0.11217688444809194
21.153525587597933,0.10646727977656857
21.163527254542423,0.17343351821703681
21.173528921486916,0.15180932322185808
21.183530588431406,0.20868977191501253
21.193532255375896,0.18521205867924492
21.20353392232039,0.21187092687898396
21.21353558926488,0.13771276400032664
21.22353725620937,0.18058550387963151
21.23353892315386,0.18302858403220998
21.243540590098352,0.14438158472480478
21.25354225704284,0.3271328790488517
21.26354392398733,0.14265285774639327
21.27354559093182,0.1910434166550264
21.283547257876315,0.14225547364190322
21.293548924820804,0.1547063200978102
21.303550591765294,0.2748058822200151
21.313552258709787,0.23081601806754254
21.323553925654277,0.26566628349994575
21.333555592598767,0.12539213520803003
21.343557259543257,0.24161840584670619
21.35355892648775,0.2281666642931516
21.36356059343224,0.15965367669972003
21.37356226037673,0.16690900515393658
21.38356392732122,0.19627863411422417
21.393565594265713,0.17929376288366392
21.403567261210203,0.1829364096825792
21.413568928154692,0.1665381583410497
21.423570595099186,0.2302239962393009
21.433572262043675,0.1662663976635566
21.443573928988165,0.2759209077247511
21.453575595932655,0.16009595894581657
21.46357726287715,0.2858392768925281
21.473578929821638,0.2490833481412223
21.483580596766128,0.24462900159517753
21.493582263710618,0.2748819868849681
21.50358393065511,0.3034180208402447
21.5135855975996,0.32793483930127765
21.52358726454409,0.2078332189763546
21.533588931488584,0.2811831025184686
21.543590598433074,0.24752946276024684
21.553592265377564,0.21461983151568897
21.563593932322053,0.15527334990581831
21.573595599266547,0.23498520099378722
21.583597266211036,0.11506614736229068
21.593598933155526,0.30271840398191724
21.603600600100016,0.2573048921631027
21.61360226704451,0.26361257280332734
21.623603933989,0.2533109053924519
21.63360560093349,0.2089947448985314
21.64360726787798,0.16557200372812053
21.653608934822472,0.22470127813911767
21.663610601766962,0.28989387322598753
21.67361226871145,0.23959186024567494
21.683613935655945,0.258253071630383
21.693615602600435,0.3098985567931993
21.703617269544925,0.21606129831134063
21.713618936489414,0.19693929962102252
21.723620603433908,0.27078578291133887
21.733622270378397,0.20517902080493416
21.743623937322887,0.3016405822462892
21.753625604267377,0.15611831877190835
21.76362727121187,0.2243529172496055
21.77362893815636,0.2816875445408241
21.78363060510085,0.2927002987392854
21.793632272045343,0.20805660160670314
21.803633938989833,0.2939095048993405
21.813635605934323,0.26580279944813856
21.823637272878813,0.3449437353598462
21.833638939823306,0.3014107750944381
21.843640606767796,0.28308160795563775
21.853642273712286,0.2936939993807241
21.863643940656775,0.25496666482282965
21.87364560760127,0.1964980593808099
21.88364727454576,0.2550563284053785
21.893648941490248,0.27996200940058424
21.90365060843474,0.3249627450416776
21.91365227537923,0.3078065946645605
21.92365394232372,0.2738512384117694
21.93365560926821,0.2474720451368904
21.943657276212704,0.2031083685956327
21.953658943157194,0.29974864378533145
21.963660610101684,0.2781742001540358
21.973662277046174,0.05541191716441422
21.983663943990667,0.7589474488137016
21.993665610935157,1.786663683389925
22.003667277879646,-0.16680842438822502
22.01366894482414,0.2591801038217201
22.02367061176863,0.3875456199023954
22.03367227871312,0.30553842250134305
22.04367394565761,0.36450846837959383
22.053675612602103,0.2806415543016817
22.063677279546592,0.2918393965293425
22.073678946491082,0.3095143423448498
22.083680613435572,0.2520473432336144
22.093682280380065,0.3130543586588568
22.103683947324555,0.27527536681571113
22.113685614269045,0.22107817801979807
22.123687281213538,0.34249139169813864
22.133688948158028,0.27874224142945475
22.143690615102518,0.46043793623257456
22.153692282047007,0.40736374685292975
22.1636939489915,0.36505518505952705
22.17369561593599,0.2898408069905107
22.18369728288048,0.30734378706839893
22.19369894982497,0.3599306506557446
22.203700616769463,0.32445210454683204
22.213702283713953,0.3420041012954167
22.223703950658443,0.2820239889900953
22.233705617602936,0.3506138194743009
22.243707284547426,0.34298370567939807
22.253708951491916,0.3544683138333269
22.263710618436406,0.40134078817700336
22.2737122853809,0.4095060782366932
22.28371395232539,0.36433797485953606
22.29371561926988,0.37558375709653224
22.30371728621437,0.36182712752189994
22.313718953158862,0.2765317903727629
22.32372062010335,0.43157664492130443
22.33372228704784,0.3468639300244894
22.34372395399233,0.3582145866092868
22.353725620936824,0.3114516440995213
22.363727287881314,0.3800746451753346
22.373728954825804,0.33834930854238104
22.383730621770297,0.20900902160376766
22.393732288714787,0.2808671281028699
22.403733955659277,0.35225093812892394
22.413735622603767,0.3680098686509549
22.42373728954826,0.30218774731612685
22.43373895649275,0.3128565248510902
22.44374062343724,0.31608271961338136
22.45374229038173,0.3455540625178146
22.463743957326223,0.3672311893469849
22.473745624270713,0.29749944838119785
22.483747291215202,0.43284419175327415
22.493748958159696,0.3668391914128549
22.503750625104185,0.3987504319385277
22.513752292048675,0.4466081495487325
22.523753958993165,0.44203977432703156
22.53375562593766,0.30549270089307534
22.543757292882148,0.43459484090722095
22.553758959826638,0.4304329547899204
22.563760626771128,0.33904117362364666
22.57376229371562,0.3662826335561457
22.58376396066011,0.34504316961715514
22.5937656276046,0.3333341710404615
22.603767294549094,0.41165896267463675
22.613768961493584,0.3619780700805075
22.623770628438074,0.3679649605850675
22.633772295382563,0.3651731963186407
22.643773962327057,0.35412452830133123
22.653775629271546,0.38583210788239186
22.663777296216036,0.43433330599098435
22.673778963160526,0.3004450853574626
22.68378063010502,0.38106997914737556
22.69378229704951,0.3971781245632862
22.703783963994,0.3305961847460873
22.713785630938492,0.39068613077360237
22.723787297882982,0.41017129341750697
22.733788964827472,0.39220963531496933
22.74379063177196,0.3377641043009664
22.753792298716455,0.42247901271144855
22.763793965660945,0.30700583409170373
22.773795632605434,0.3204245027404529
22.783797299549924,0.4718776665607678
22.793798966494418,0.3207310826961691
22.803800633438907,0.4098640665076191
22.813802300383397,0.4078803694562022
22.82380396732789,0.4153231253584651
22.83380563427238,0.3937749283620069
22.84380730121687,0.45166530451979237
22.85380896816136,0.47467439326125943
22.863810635105853,0.3904694121340695
22.873812302050343,0.4017991030823691
22.883813968994833,0.5188908277609648
22.893815635939323,0.43706943695161965
22.903817302883816,0.3896292628382852
22.913818969828306,0.44594548529740435
22.923820636772795,0.41434974850683404
22.93382230371729,0.43729554288527256
22.94382397066178,0.3919536100470799
22.95382563760627,0.42104629982870057
22.963827304550758,0.3633274721736106
22.97382897149525,0.38250304127205814
22.98383063843974,0.22470998705997555
22.99383230538423,0.899410690716827
23.00383397232872,1.9276624924494468
23.013835639273214,-0.06178460673883529
23.023837306217704,0.4089170112430223
23.033838973162194,0.4876727382292517
23.043840640106687,0.5027782024571956
23.053842307051177,0.4005532317162282
23.063843973995667,0.5000888369470022
23.073845640940156,0.4217020319431514
23.08384730788465,0.5183041330629015
23.09384897482914,0.48416067003516294
23.10385064177363,0.4096166336758862
23.11385230871812,0.3653918111941736
23.123853975662612,0.32678584698872626
23.133855642607102,0.3697355900434359
23.143857309551592,0.37320475370331607
23.153858976496082,0.44051750022256836
23.163860643440575,0.4009251846911932
23.173862310385065,0.46565192214147555
23.183863977329555,0.38734042436350735
23.193865644274048,0.45674987143717527
23.203867311218538,0.49403514288338446
23.213868978163028,0.4044811990379745
23.223870645107517,0.38363576032778596
23.23387231205201,0.41587177848880513
23.2438739789965,0.4297521379807383
23.25387564594099,0.39561578188716956
23.26387731288548,0.3922998297100742
23.273878979829973,0.4380093394083098
23.283880646774463,0.39542274537724714
23.293882313718953,0.40113189696435936
23.303883980663446,0.47724807754179494
23.313885647607936,0.4389077926484585
23.323887314552426,0.4183554091991628
23.333888981496916,0.40891569008948897
23.34389064844141,0.5004963810262598
23.3538923153859,0.5024422693362394
23.36389398233039,0.4213053047233251
23.37389564927488,0.3998509448779394
23.38389731621937,0.48844812949082506
23.39389898316386,0.43155224320770325
23.40390065010835,0.416364752769356
23.413902317052845,0.454110643591793
23.423903983997334,0.43534164208105997
23.433905650941824,0.4219319759411193
23.443907317886314,0.464493184488473
23.453908984830807,0.4438445121121916
23.463910651775297,0.4928931639275972
23.473912318719787,0.4470140726754118
23.483913985664277,0.4264483549091253
23.49391565260877,0.39439188797128166
23.50391731955326,0.4124165257107039
23.51391898649775,0.4495394044888831
23.523920653442243,0.47300135478773675
23.533922320386733,0.48668448643736545
23.543923987331222,0.4727428874870818
23.553925654275712,0.48175525690550197
23.563927321220206,0.45971915293439847
23.573928988164695,0.43770095869644654
23.583930655109185,0.3607222805359303
23.593932322053675,0.4419618647173222
23.60393398899817,0.3329809938122309
23.613935655942658,0.4947299375196947
23.623937322887148,0.36349386665233935
23.63393898983164,0.45568510858529226
23.64394065677613,0.4357805317733904
23.65394232372062,0.3735302905690102
23.66394399066511,0.4660538321487887
23.673945657609604,0.48850654072315886
23.683947324554094,0.522616702892799
23.693948991498583,0.4512601935773129
23.703950658443073,0.3868578310979311
23.713952325387567,0.4284308916813201
23.723953992332056,0.46523245163812965
23.733955659276546,0.44016675565958124
23.74395732622104,0.4818019023708397
23.75395899316553,0.5291929954778004
23.76396066011002,0.4452654538892256
23.77396232705451,0.4909464343339132
23.783963993999002,0.3309909958221421
23.793965660943492,0.4950337921624809
23.80396732788798,0.5702153403034106
23.81396899483247,0.4106961780095264
23.823970661776965,0.5422090748341496
23.833972328721455,0.5085636916961025
23.843973995665944,0.480823922839569
23.853975662610434,0.46062113143234024
23.863977329554928,0.45069734037106807
23.873978996499417,0.46779293064630145
23.883980663443907,0.4689842735235889
23.8939823303884,0.4754177244392665
23.90398399733289,0.43553528659556734
23.91398566427738,0.45712486236450234
23.92398733122187,0.5728328422519862
23.933988998166363,0.5429856645786337
23.943990665110853,0.44043490437098964
23.953992332055343,0.472440580052634
23.963993998999833,0.42821983065924607
23.973995665944326,0.522238568050085
23.983997332888816,0.4533005662065832
23.993998999833305,0.5351883154748085
24.0040006667778,0.42886256996186045
24.01400233372229,0.5199536776909837
24.02400400066678,0.49918526908471067
24.034005667611268,0.4315872646400167
24.04400733455576,0.44596818060644433
24.05400900150025,0.48149672498706975
24.06401066844474,0.38552511491925384
24.07401233538923,1.0414447667805153
24.084014002333724,1.9427935263422575
24.094015669278214,0.03738079213758692
24.104017336222704,0.4145823233693838
24.114019003167197,0.4451974474398695
24.124020670111687,0.515056996945263
24.134022337056177,0.5383018946497149
24.144024004000666,0.4976701781644295
24.15402567094516,0.46494456539708273
24.16402733788965,0.4608980167078912
24.17402900483414,0.4795632172560269
24.18403067177863,0.5705174341271707
24.194032338723122,0.44983885426049547
24.204034005667612,0.3899477704759818
24.214035672612102,0.4578781921019707
24.224037339556595,0.4722020548217877
24.234039006501085,0.45895965872419614
24.244040673445575,0.44432190722399173
24.254042340390065,0.4703812669712648
24.264044007334558,0.46678423415449105
24.274045674279048,0.42656426905554234
24.284047341223538,0.5067889762113775
24.294049008168027,0.6119838134588477
24.30405067511252,0.540220121851215
24.31405234205701,0.4599969099500787
24.3240540090015,0.4909640482125139
24.334055675945994,0.5256998795588379
24.344057342890483,0.510962458857089
24.354059009834973,0.47983418406343603
24.364060676779463,0.4858070549785362
24.374062343723956,0.5101212376446093
24.384064010668446,0.49787845912399936
24.394065677612936,0.5948470251265952
24.404067344557426,0.48014594913688874
24.41406901150192,0.4752345475287759
24.42407067844641,0.5681081664729373
24.4340723453909,0.45473598351281624
24.444074012335392,0.5110129636721042
24.45407567927988,0.5019756634647421
24.46407734622437,0.4672371216664255
24.47407901316886,0.4397275392122551
24.484080680113355,0.5187324611724544
24.494082347057844,0.5055381537862665
24.504084014002334,0.4650659971351866
24.514085680946824,0.5918074235640709
24.524087347891317,0.47216666727732143
24.534089014835807,0.457058898246333
24.544090681780297,0.5196147688374265
24.554092348724787,0.5415551863133392
24.56409401566928,0.5139965290032278
24.57409568261377,0.5234629420865228
24.58409734955826,0.3500693454674067
24.594099016502753,0.48716444903087414
24.604100683447243,0.5739372760341798
24.614102350391732,0.5053006721476597
24.624104017336222,0.5504411629768261
24.634105684280716,0.46613268206916175
24.644107351225205,0.49747879480356505
24.654109018169695,0.49913364395108173
24.664110685114185,0.47464693278095677
24.67411235205868,0.4834799720958364
24.684114019003168,0.4240637274532633
24.694115685947658,0.5809491245183176
24.70411735289215,0.5793351143263689
24.71411901983664,0.521542509639275
24.72412068678113,0.44713407284666856
24.73412235372562,0.5373011410862
24.744124020670114,0.46436911312662316
24.754125687614604,0.4621373661624231
24.764127354559093,0.4410847614775786
24.774129021503583,0.47819438753892946
24.784130688448077,0.4432834148234091
24.794132355392566,0.4484214226400016
24.804134022337056,0.45164473149246315
24.81413568928155,0.48595602334448224
24.82413735622604,0.4298534860725087
24.83413902317053,0.49984735216924164
24.84414069011502,0.4640909844499665
24.854142357059512,0.4191914091709542
24.864144024004002,0.5522999715573614
24.87414569094849,0.5407339956994953
24.88414735789298,0.4572403836957878
24.894149024837475,0.4320971225135965
24.904150691781965,0.5058296975232935
24.914152358726454,0.5356257215053322
24.924154025670948,0.39962887742433956
24.934155692615438,0.4741739045551953
24.944157359559927,0.45596762500843535
24.954159026504417,0.5864265981041814
24.96416069344891,0.6236802009925213
24.9741623603934,0.5332104734947848
24.98416402733789,0.44094331953862903
24.99416569428238,0.43677049491313186
25.004167361226873,0.40744375012399575
25.014169028171363,0.5358197723097341
25.024170695115853,0.4766849983598364
25.034172362060346,0.5118146709469277
25.044174029004836,0.5006906949872916
25.054175695949326,0.46831809758749043
25.064177362893815,0.524719169285633
25.07417902983831,0.4902613943536561
25.0841806967828,0.4884232876338769
25.09418236372729,0.571747276378756
25.104184030671778,0.39870284752167046
25.11418569761627,0.4923254626105698
25.12418736456076,0.4770588280017522
25.13418903150525,0.6148554444729389
25.144190698449744,0.45238541783856634
25.154192365394234,0.47966409964386264
25.164194032338724,0.5132504515702776
25.174195699283214,0.5235134697392542
25.184197366227707,0.4247255475190147
25.194199033172197,0.5135572135007467
25.204200700116687,0.5245648621290315
25.214202367061176,0.4435433985250804
25.22420403400567,0.4316440581516116
25.23420570095016,0.2759288038568153
25.24420736789465,1.0398718664438455
25.25420903483914,1.9688412443852046
25.264210701783632,0.07907378041562407
25.274212368728122,0.36355854898164475
25.284214035672612,0.5387339620030136
25.294215702617105,0.5649693500010392
25.304217369561595,0.5087574135250484
25.314219036506085,0.4780373141280552
25.324220703450575,0.48358860034454776
25.334222370395068,0.400650369347089
25.344224037339558,0.4748483927347559
25.354225704284048,0.5244360823070844
25.364227371228537,0.5382865341339294
25.37422903817303,0.47445772150804943
25.38423070511752,0.4722345609892212
25.39423237206201,0.509027756179299
25.404234039006504,0.5058248514668288
25.414235705950993,0.4493168011738804
25.424237372895483,0.5009375315705168
25.434239039839973,0.4418765958150192
25.444240706784466,0.5294250659523533
25.454242373728956,0.5029044955305096
25.464244040673446,0.5536638629411484
25.474245707617936,0.5591770600536559
25.48424737456243,0.4422782719187685
25.49424904150692,0.5035703864641443
25.50425070845141,0.4377082447996541
25.514252375395902,0.41112278574130884
25.52425404234039,0.4678956361003946
25.53425570928488,0.5466085515663335
25.54425737622937,0.47636740299153024
25.554259043173865,0.5019289684956
25.564260710118354,0.435791824695636
25.574262377062844,0.4325946073410862
25.584264044007334,0.5048472866248298
25.594265710951827,0.5158816635145506
25.604267377896317,0.6098074986018306
25.614269044840807,0.5096852941963123
25.6242707117853,0.6128206222072032
25.63427237872979,0.4601107039232997
25.64427404567428,0.5424464859228061
25.65427571261877,0.5564400407170991
25.664277379563263,0.5081488535700813
25.674279046507753,0.49542388529638653
25.684280713452242,0.48231088658328947
25.694282380396732,0.4654720030931506
25.704284047341226,0.48312402723367814
25.714285714285715,0.5796509024141079
25.724287381230205,0.48269113076951925
25.7342890481747,0.5389820110757686
25.744290715119188,0.4680198415708503
25.754292382063678,0.44426686706313034
25.764294049008168,0.5209326022344818
25.77429571595266,0.5415935172057738
25.78429738289715,0.553223764596538
25.79429904984164,0.415588080214944
25.80430071678613,0.43855951008494287
25.814302383730624,0.5020575808873855
25.824304050675114,0.4925282410515742
25.834305717619603,0.48982143130348815
25.844307384564097,0.5477875497010518
25.854309051508586,0.4133783043525201
25.864310718453076,0.5319580014362496
25.874312385397566,0.5194975104259429
25.88431405234206,0.5334452528915358
25.89431571928655,0.5628417051854306
25.90431738623104,0.5166357544745162
25.91431905317553,0.52335346206525
25.924320720120022,0.46183012577743493
25.934322387064512,0.6327154725102151
25.944324054009,0.47947834381500326
25.954325720953495,0.5326916141012836
25.964327387897985,0.5492715761703444
25.974329054842475,0.45129013473466145
25.984330721786964,0.47122379665488096
25.994332388731458,0.5017185919142658
26.004334055675947,0.49052127226467407
26.014335722620437,0.4668724827193808
26.024337389564927,0.49949552791185653
26.03433905650942,0.48905607053213496
26.04434072345391,0.4231017542355388
26.0543423903984,0.42975364417329165
26.06434405734289,0.40889739727262975
26.074345724287383,0.4818972281494074
26.084347391231873,0.421448748165623
26.094349058176363,0.5053827563332871
26.104350725120856,0.4736225114951053
26.114352392065346,0.4476015941299469
26.124354059009836,0.4674785510982752
26.134355725954325,0.5135000652896226
26.14435739289882,0.4795906255324093
26.15435905984331,0.4951101584351946
26.1643607267878,0.4784358028758404
26.174362393732288,0.4031365937921762
26.18436406067678,0.41315002028862313
26.19436572762127,0.5022314319022041
26.20436739456576,0.43090723617060966
26.214369061510254,0.46853453757362234
26.224370728454744,0.47256089911753085
26.234372395399234,0.5353641058375108
26.244374062343724,0.5017142843448633
26.254375729288217,0.40096486226238204
26.264377396232707,0.4775310837760357
26.274379063177197,0.4724500389097095
26.284380730121686,0.4777269789468712
26.29438239706618,0.4094628208930813
26.30438406401067,0.4386831581902037
26.31438573095516,0.5071291684486232
26.324387397899653,0.45612672119660264
26.334389064844142,0.5383765736940547
26.344390731788632,0.5833728004693047
26.354392398733122,0.5054591194981598
26.364394065677615,0.4098515100055139
26.374395732622105,0.44042212755939486
26.384397399566595,0.4344587481918766
26.394399066511085,0.4597478027918223
26.404400733455578,0.5103293506413014
26.414402400400068,0.38177860172513495
26.424404067344557,0.4099369003566983
26.43440573428905,0.4128828107689252
26.44440740123354,0.4764374913385722
26.45440906817803,0.48460451640813085
26.46441073512252,0.4323528754239565
26.474412402067014,0.49117229465267426
26.484414069011503,0.4404920323577928
26.494415735955993,0.4393829981423942
26.504417402900483,0.41399465146814896
26.514419069844976,0.45529583719076
26.524420736789466,0.17871891468895668
26.534422403733956,0.9249651599014673
26.54442407067845,1.932501408882241
26.55442573762294,0.10705707958981199
26.56442740456743,0.36008143451976754
26.57442907151192,0.465516991517787
26.584430738456412,0.47106535708754266
26.5944324054009,0.3708453056125969
26.60443407234539,0.40779824265228
26.61443573928988,0.5171311493783692
26.624437406234374,0.38532052735710226
26.634439073178864,0.40749534856171366
26.644440740123354,0.3914393660469606
26.654442407067847,0.4485851443237172
26.664444074012337,0.3170259656071981
26.674445740956827,0.4326876666862778
26.684447407901317,0.3392828759240307
26.69444907484581,0.392080550450116
26.7044507417903,0.4180385172921898
26.71445240873479,0.4722573282295218
26.72445407567928,0.44120627352738706
26.734455742623773,0.4312815549350285
26.744457409568263,0.4523991171464337
26.754459076512752,0.44597421801297477
26.764460743457242,0.4497812640542216
26.774462410401735,0.4620754774508419
26.784464077346225,0.3784186386872009
26.794465744290715,0.4705720742195818
26.80446741123521,0.3990456139895016
26.814469078179698,0.3776018387440741
26.824470745124188,0.3830452882645062
26.834472412068678,0.32612405801338784
26.84447407901317,0.3419319503795797
26.85447574595766,0.4172151551760113
26.86447741290215,0.4270166025986457
26.87447907984664,0.3263893680042339
26.884480746791134,0.493334677969519
26.894482413735624,0.4673842307274535
26.904484080680113,0.3662289904135777
26.914485747624607,0.31515858783504874
26.924487414569096,0.3686237174856237
26.934489081513586,0.3702696343568359
26.944490748458076,0.4443754128999962
26.95449241540257,0.33377140997780286
26.96449408234706,0.3697938304046315
26.97449574929155,0.2915087445914266
26.98449741623604,0.447932444068071
26.994499083180532,0.4641807882879436
27.004500750125022,0.45092605765137517
27.01450241706951,0.4368023483401656
27.024504084014005,0.3936976760673457
27.034505750958495,0.39900887405162266
27.044507417902985,0.3848801720923157
27.054509084847474,0.3394344062893249
27.064510751791968,0.4505377427312866
27.074512418736457,0.4485939884131823
27.084514085680947,0.3395484611805303
27.094515752625437,0.3897885377138118
27.10451741956993,0.3639207979187137
27.11451908651442,0.3783110602030368
27.12452075345891,0.4375879394333617
27.134522420403403,0.4647651315611909
27.144524087347893,0.4073832474568499
27.154525754292383,0.3901846927851961
27.164527421236873,0.3707130962876538
27.174529088181366,0.38839029215677984
27.184530755125856,0.4249430996300203
27.194532422070345,0.4441378870620756
27.204534089014835,0.33900759101312844
27.21453575595933,0.2960268388698891
27.22453742290382,0.39828120975034925
27.234539089848308,0.45896448473314466
27.2445407567928,0.4048066718192911
27.25454242373729,0.37007431053254214
27.26454409068178,0.43620489630163656
27.27454575762627,0.3124995530550591
27.284547424570764,0.37416069929136164
27.294549091515254,0.34039723228292446
27.304550758459744,0.4696466660566936
27.314552425404234,0.3029459425433837
27.324554092348727,0.42452910796460996
27.334555759293217,0.30737141659949724
27.344557426237706,0.40608615087521466
27.3545590931822,0.37856690041565766
27.36456076012669,0.4552474723210925
27.37456242707118,0.31987119917934
27.38456409401567,0.347697357723855
27.394565760960162,0.29940344396834223
27.404567427904652,0.2740354254901618
27.414569094849142,0.38926971245244785
27.424570761793632,0.3866896392199557
27.434572428738125,0.35541600084906605
27.444574095682615,0.34483886569611844
27.454575762627105,0.346263345804227
27.464577429571595,0.42633623582391666
27.474579096516088,0.36620439483593625
27.484580763460578,0.4566714877122434
27.494582430405067,0.379579945699884
27.50458409734956,0.3022625705110561
27.51458576429405,0.26356507477295216
27.52458743123854,0.32511498352495105
27.53458909818303,0.39250813160058334
27.544590765127523,0.34615696709646365
27.554592432072013,0.39295305184045226
27.564594099016503,0.30844610736007433
27.574595765960993,0.3268043423690513
27.584597432905486,0.31060606363704435
27.594599099849976,0.39989862607747784
27.604600766794466,0.3754591050595843
27.61460243373896,0.2200515970804001
27.62460410068345,0.3051161311551652
27.63460576762794,0.28256200332186654
27.64460743457243,0.4293080647212385
27.65460910151692,0.41940784524743707
27.66461076846141,0.2840038302807003
27.6746124354059,0.3334095729607624
27.68461410235039,0.341417391893569
27.694615769294884,0.21625491461849622
27.704617436239374,0.2828786524547142
27.714619103183864,0.27393621911100924
27.724620770128357,0.3088847834092135
27.734622437072847,0.3470559057554699
27.744624104017337,0.20308583453560558
27.754625770961827,0.3609012868319371
27.76462743790632,0.34231639477403275
27.77462910485081,0.33144039130379077
27.7846307717953,0.3372116094174147
27.79463243873979,0.35909892601006155
27.804634105684283,0.4304537204398708
27.814635772628773,0.3663209626352982
27.824637439573262,0.30961829301725874
27.834639106517756,0.44125200443774926
27.844640773462245,0.17751926123802197
27.854642440406735,0.3293771981704624
27.864644107351225,0.31265926437661395
27.87464577429572,0.3045073777710265
27.884647441240208,0.33152502385053373
27.894649108184698,0.36241634427622277
27.904650775129188,0.262580496859804
27.91465244207368,0.364360840075414
27.92465410901817,0.34716676099654636
27.93465577596266,0.326452722043727
27.944657442907154,0.3103645435523952
27.954659109851644,0.3251707721626679
27.964660776796133,0.12059280226465036
27.974662443740623,0.7747989353722119
27.984664110685117,1.7556704800778766
27.994665777629606,-0.1625557519180969
28.004667444574096,0.16338566725427317
28.014669111518586,0.1898860329405399
28.02467077846308,0.28343353978198244
28.03467244540757,0.32374500888752106
28.04467411235206,0.29610473426629064
28.054675779296552,0.3785305006277433
28.064677446241042,0.25202435147147056
28.07467911318553,0.3103458911984644
28.08468078013002,0.21197055185454905
28.094682447074515,0.2852521848827746
28.104684114019005,0.22530611240581672
28.114685780963494,0.28441027773558747
28.124687447907984,0.2675146938444556
28.134689114852478,0.24582684326973672
28.144690781796967,0.27761722430634234
28.154692448741457,0.3145778007000664
28.164694115685947,0.25477034533339504
28.17469578263044,0.3011297282445244
28.18469744957493,0.23866595300475832
28.19469911651942,0.25814705018201906
28.204700783463913,0.24614934954096734
28.214702450408403,0.22334729062224243
28.224704117352893,0.28996622621474955
28.234705784297383,0.38529603330075257
28.244707451241876,0.25237646722504337
28.254709118186366,0.3208798808836739
28.264710785130855,0.26815587444828054
28.274712452075345,0.29254114621411026
28.28471411901984,0.17978283426879538
28.29471578596433,0.22210494003174389
28.304717452908818,0.18341097427249098
28.31471911985331,0.27287134397745777
28.3247207867978,0.2671805067867346
28.33472245374229,0.2406088721131123
28.34472412068678,0.2758699520223096
28.354725787631274,0.254429349970155
28.364727454575764,0.23676467936944212
28.374729121520254,0.1425520640031661
28.384730788464744,0.306279025663643
28.394732455409237,0.20985742106283042
28.404734122353727,0.2335545402776497
28.414735789298216,0.22980048823458774
28.42473745624271,0.2542801399429622
28.4347391231872,0.1892828638108459
28.44474079013169,0.23579079520913096
28.45474245707618,0.31863936546213084
28.464744124020672,0.32829127782285755
28.474745790965162,0.27055776524058855
28.484747457909652,0.19194052887918697
28.494749124854142,0.3422971328647548
28.504750791798635,0.1873273454181564
28.514752458743125,0.2239471073930373
28.524754125687615,0.2035794480933811
28.534755792632108,0.12878196532557892
28.544757459576598,0.19741476383795653
28.554759126521088,0.2328433585889313
28.564760793465577,0.23444910754815185
28.57476246041007,0.22009283049830153
28.58476412735456,0.22217379593969525
28.59476579429905,0.21462601451258498
28.60476746124354,0.2270880143665235
28.614769128188033,0.23968655415418536
28.624770795132523,0.22657172535730805
28.634772462077013,0.1744058136388416
28.644774129021506,0.2882320757672361
28.654775795965996,0.17394622861484405
28.664777462910486,0.2925218355753082
28.674779129854976,0.22785547308425333
28.68478079679947,0.1813284349966492
28.69478246374396,0.20387238144408512
28.70478413068845,0.15394671691708825
28.71478579763294,0.2617626249542597
28.72478746457743,0.2931996298286846
28.73478913152192,0.14369497451069904
28.74479079846641,0.06609576048095628
28.754792465410905,0.2973379210406829
28.764794132355394,0.21638567587397656
28.774795799299884,0.22087098580868916
28.784797466244374,0.11113426415820865
28.794799133188867,0.152672939340067
28.804800800133357,0.22953702571404555
28.814802467077847,0.18843570689916164
28.824804134022337,0.224690127553536
28.83480580096683,0.1735220052241044
28.84480746791132,0.13739338678061255
28.85480913485581,0.23113897771836522
28.864810801800303,0.16569677247530812
28.874812468744793,0.14684669714783927
28.884814135689282,0.16411551689411197
28.894815802633772,0.19617899824594312
28.904817469578266,0.12491874778597985
28.914819136522755,0.22688400363445538
28.924820803467245,0.12877639179788944
28.934822470411735,0.1092611982096037
28.94482413735623,0.15630703828824904
28.954825804300718,0.17352071577882242
28.964827471245208,0.22146143844408728
28.974829138189698,0.16580353869585365
28.98483080513419,0.13025080621469023
28.99483247207868,0.15877819970426094
29.00483413902317,0.19849296285548407
29.014835805967664,0.08649439233554172
29.024837472912154,0.09081736898749071
29.034839139856643,0.17658466751219842
29.044840806801133,0.11062036669755464
29.054842473745627,0.021529002791464746
29.064844140690116,0.08525101717792746
29.074845807634606,0.151272148307954
29.084847474579096,0.1307412415027407
29.09484914152359,0.18369404028723552
29.10485080846808,0.10988894181325273
29.11485247541257,0.09079056782968854
29.124854142357062,0.16394424143176742
29.134855809301552,0.2320767245455897
29.14485747624604,0.14974610509198652
29.15485914319053,0.17549005514493216
29.164860810135025,0.17691976439248483
29.174862477079515,0.08612431521000127
29.184864144024004,0.14939720144568255
29.194865810968494,0.15897566607174274
29.204867477912988,0.1076327590150254
29.214869144857477,0.1090111535958686
29.224870811801967,0.03315664522755579
29.23487247874646,0.2052921025685685
29.24487414569095,0.11114457973126264
29.25487581263544,0.13834920057374445
29.26487747957993,0.14979990296917864
29.274879146524423,0.14421829304247952
29.284880813468913,0.15821904743249224
29.294882480413403,0.09096451980267993
29.304884147357892,0.07974145990687075
29.314885814302386,0.030981282967760163
29.324887481246876,0.0995750403481969
29.334889148191365,0.08066970147054438
29.34489081513586,0.13321149356342132
29.35489248208035,0.07137440606602041
29.36489414902484,0.14335351459936374
29.374895815969328,0.1425529346453855
29.38489748291382,0.06729278976510225
29.39489914985831,0.023129657721231753
29.4049008168028,0.07325997144193198
29.41490248374729,-0.031938126711288164
29.424904150691784,0.08793134747021274
29.434905817636274,0.09213357261445518
29.444907484580764,0.14757618546663676
29.454909151525257,0.12704098659456242
29.464910818469747,0.07270038757935224
29.474912485414237,0.12306839331529582
29.484914152358726,0.11703531107874693
29.49491581930322,-0.02522108483862874
29.50491748624771,0.05243984700297608
29.5149191531922,0.10626970205987779
29.52492082013669,0.2374158931090059
29.534922487081182,0.12066147470139287
29.544924154025672,0.07146900726517398
29.554925820970162,0.009188051384523
29.564927487914655,0.06815982165828809
29.574929154859145,0.04608114616860935
29.584930821803635,0.0851591647706529
29.594932488748125,0.07324682414157276
29.604934155692618,0.07824619432469981
29.614935822637108,0.07062543351463327
29.624937489581598,-0.1602869916330822
29.634939156526087,0.5498648900246286
29.64494082347058,1.520287774031427
29.65494249041507,-0.39584213843339333
29.66494415735956,0.06509286912438134
29.67494582430405,0.13199601156539564
29.684947491248543,0.022720207456628724
29.694949158193033,0.1302696558334221
29.704950825137523,0.14691270675919726
29.714952492082016,0.008125587059624441
29.724954159026506,0.05281060601965003
29.734955825970996,0.01697007583895934
29.744957492915486,0.03628559282548055
29.75495915985998,0.16594361617411413
29.76496082680447,0.05769283717469776
29.77496249374896,0.04993981412519828
29.78496416069345,0.08305711407778171
29.79496582763794,0.020557655712540597
29.80496749458243,0.11099663790131208
29.81496916152692,0.0640998423309232
29.824970828471415,0.011612526035089329
29.834972495415904,0.020204834458599844
29.844974162360394,0.010608722372111672
29.854975829304884,0.03480267850183184
29.864977496249377,0.09573493156852887
29.874979163193867,0.10533023093761676
29.884980830138357,-0.0014587412779922052
29.894982497082847,0.08142322120924035
29.90498416402734,-0.07663205300463932
29.91498583097183,-0.10283852884970214
29.92498749791632,0.010540160401900533
29.934989164860813,-0.036043199275320396
29.944990831805303,-0.042809993365233355
29.954992498749792,-0.019386367107731468
29.964994165694282,-0.019304958027881538
29.974995832638776,0.02446184732002324
29.984997499583265,0.015504853635107051
29.994999166527755,0.10728452133565272
30.005000833472245,-0.02239214238614203
30.01500250041674,-0.041563743660368635
30.025004167361228,-0.009437001223028516
30.035005834305718,-0.09848092097567984
30.04500750125021,-0.0008954840642122555
30.0550091681947,0.020466051425688928
30.06501083513919,-0.00010007104243298613
30.07501250208368,0.037084876272547446
30.085014169028174,-0.10534500609971223
30.095015835972664,-0.13628399150000908
30.105017502917153,-0.06920875491846895
30.115019169861643,-0.09894558522183934
30.125020836806137,-0.10476163310746638
30.135022503750626,0.004313452787111781
30.145024170695116,-0.07131626713225336
30.15502583763961,-0.04992861451945467
30.1650275045841,0.05928526962277193
30.17502917152859,-0.11045382259330097
30.18503083847308,-0.05692132454759526
30.195032505417572,0.018561805861923776
30.205034172362062,0.022828763056784183
30.21503583930655,0.021452923736220084
30.22503750625104,-0.03801421872674979
30.235039173195535,0.04470623278394162
30.245040840140025,0.02360313258322936
30.255042507084514,0.059584070032634676
30.265044174029008,-0.05091015855497801
30.275045840973497,-0.11813615586148013
30.285047507917987,-0.10568996939223149
30.295049174862477,-0.07548306736248096
30.30505084180697,-0.08937640210692607
30.31505250875146,-0.039688358567294635
30.32505417569595,-0.12901047210064237
30.33505584264044,-0.04099161721261761
30.345057509584933,-0.09121436821305481
30.355059176529423,-0.00410357964560535
30.365060843473913,-0.05757955968778809
30.375062510418402,-0.07813318190923293
30.385064177362896,-0.01554233350852735
30.395065844307386,-0.10197191028182724
30.405067511251875,0.006931392820506199
30.41506917819637,-0.20533730340671538
30.42507084514086,-0.12781204920747338
30.43507251208535,-0.07884901124050749
30.445074179029838,0.0033866411753255693
30.45507584597433,-0.0180369756704613
30.46507751291882,-0.12203441774737492
30.47507917986331,-0.12817517816535276
30.4850808468078,0.0011282362202613277
30.495082513752294,-0.07427416942477305
30.505084180696784,-0.030631885530556395
30.515085847641274,-0.08880692539942055
30.525087514585767,-0.013282641907154141
30.535089181530257,-0.06913155506130138
30.545090848474747,-0.09043832192490563
30.555092515419236,-0.08047011257607842
30.56509418236373,-0.06309784843267266
30.57509584930822,-0.07711672802138099
30.58509751625271,-0.07616481409427706
30.5950991831972,-0.04737848308191306
30.605100850141692,-0.11121317433269154
30.615102517086182,-0.13960640872043764
30.625104184030672,-0.1363917851419715
30.635105850975165,-0.07311412630362807
30.645107517919655,-0.13881794960650432
30.655109184864145,-0.04815423457418964
30.665110851808635,-0.20305199612667818
30.675112518753128,-0.09057328121456616
30.685114185697618,-0.0533568107575032
30.695115852642108,-0.14968743698093365
30.705117519586597,-0.037009048063288086
30.71511918653109,-0.11896313753332358
30.72512085347558,-0.07640873767963288
30.73512252042007,-0.06613220906529188
30.745124187364564,-0.17035060090647106
30.755125854309053,-0.0074944961566303925
30.765127521253543,-0.1344004726153508
30.775129188198033,-0.10466476108587591
30.785130855142526,-0.20367714740935577
30.795132522087016,-0.18021895247042202
30.805134189031506,-0.1071541866493039
30.815135855975996,-0.20402702691147265
30.82513752292049,-0.11035192220861492
30.83513918986498,-0.11228901363259158
30.84514085680947,-0.049419404958609456
30.855142523753962,0.02175516175719161
30.86514419069845,-0.03674036188786298
30.87514585764294,-0.1573545290074886
30.88514752458743,-0.04032775656163126
30.895149191531925,-0.18082887903116893
30.905150858476414,-0.20432553551378446
30.915152525420904,-0.18844144993006343
30.925154192365394,-0.1717746924440794
30.935155859309887,-0.1810907081809423
30.945157526254377,-0.16453892560505964
30.955159193198867,-0.1857401554886505
30.96516086014336,-0.16102419800316367
30.97516252708785,-0.06533705980364553
30.98516419403234,-0.2545887017674908
30.99516586097683,-0.13952139579478273
31.005167527921323,-0.13415149469584262
31.015169194865813,-0.13336519263711255
31.025170861810302,-0.0017058962824396673
31.035172528754792,-0.07770539301452878
31.045174195699285,-0.11328281236717214
31.055175862643775,-0.12945588125851498
31.065177529588265,-0.13900914178057552
31.07517919653276,-0.14068705950112212
31.085180863477248,-0.1527815985354716
31.095182530421738,-0.14820217119754203
31.105184197366228,-0.12358989901203893
31.11518586431072,-0.13896507995582516
31.12518753125521,-0.2452703142450156
31.1351891981997,-0.1642029339935546
31.14519086514419,-0.10612867047728497
31.155192532088684,-0.15604529359372984
31.165194199033174,-0.23982332424069994
31.175195865977663,-0.1891115954191048
31.185197532922153,-0.18834246781717484
31.195199199866646,-0.215940745469112
31.205200866811136,-0.15577886010143988
31.215202533755626,-0.16419701708911744
31.22520420070012,-0.2385195417190184
31.23520586764461,-0.3209278899064525
