Time_s,ECG_mV
0.0,-0.14322122383001407
0.010001666944490749,0.07719026234119634
0.020003333888981498,0.015024064543862027
0.030005000833472247,-0.014223640949267705
0.040006667777962995,-0.0008290454944583862
0.050008334722453744,0.03709475940099041
0.06001000166694449,0.05510645370091818
0.07001166861143523,-0.008944926872558778
0.08001333555592599,-0.05808173905065962
0.09001500250041675,0.01739150725015772
0.10001666944490749,0.06310665634147486
0.11001833638939823,-0.022716165899592897
0.12002000333388899,0.04083011665174879
0.13002167027837974,0.027067170024463967
0.14002333722287047,-0.038156139539450226
0.15002500416736123,0.028310823551166465
0.16002667111185198,0.014153679157084695
0.17002833805634274,0.0561925946547043
0.1800300050008335,0.023872881007253592
0.19003167194532422,-0.010250855748244924
0.20003333888981498,0.06310959776846432
0.21003500583430573,0.02662350045071438
0.22003667277879646,0.034625159056667194
0.23003833972328722,-0.04568712907809249
0.24004000666777797,0.013357541834954419
0.2500416736122687,-0.005881143354066899
0.2600433405567595,-0.01582560720001932
0.2700450075012502,0.014701929622682634
0.28004667444574094,0.043007331646701855
0.2900483413902317,0.09343755559037778
0.30005000833472245,0.04962535014562386
0.31005167527921323,0.06559475175636778
0.32005334222370396,0.13011490004899046
0.3300550091681947,0.048486681968235586
0.3400566761126855,0.0987305315666338
0.3500583430571762,-0.019641093154536736
0.360060010001667,0.023243405117015566
0.3700616769461577,0.0964307732322978
0.38006334389064844,0.12876364686390557
0.3900650108351392,-0.0027765474035999493
0.40006667777962995,0.08959734005487079
0.4100683447241207,0.09637709891446213
0.42007001166861146,-0.012194975121013904
0.4300716786131022,0.06995090304810937
0.4400733455575929,0.014480289790325916
0.4500750125020837,0.12705677821271544
0.46007667944657443,0.012870626926487917
0.4700783463910652,0.08146842543681908
0.48008001333555594,0.04397215667925479
0.49008168028004667,0.00727302861966668
0.5000833472245374,0.02797684821416406
0.5100850141690282,0.07825844850909841
0.520086681113519,0.12584538442047705
0.5300883480580096,0.13397047771208886
0.5400900150025004,0.06967623104068849
0.5500916819469912,0.1256082469443146
0.5600933488914819,0.015284145148716052
0.5700950158359727,0.08210906295882764
0.5800966827804634,0.14133658144919234
0.5900983497249542,0.10499160727165797
0.6001000166694449,0.15882206744917235
0.6101016836139357,0.11556146082219361
0.6201033505584265,0.030078699649175464
0.6301050175029171,0.1350730933180463
0.6401066844474079,0.1464048374752484
0.6501083513918987,0.13749014807631477
0.6601100183363894,0.1486019069912061
0.6701116852808802,0.02199933741271516
0.680113352225371,0.165364995315926
0.6901150191698616,0.15227717621883222
0.7001166861143524,0.13506067825943197
0.7101183530588432,0.11975162024394237
0.720120020003334,0.2077161116394352
0.7301216869478246,0.2177386794841733
0.7401233538923154,0.062018592692396776
0.7501250208368062,0.1569958227441744
0.7601266877812969,0.15129784944384816
0.7701283547257877,0.1883502132997229
0.7801300216702785,0.243144095947548
0.7901316886147691,0.14379106840205944
0.8001333555592599,0.22086415003464793
0.8101350225037507,0.18002979916214248
0.8201366894482414,0.1402845704564103
0.8301383563927321,-0.06459031754420475
0.8401400233372229,0.6771599469060431
0.8501416902817136,1.6242252910088375
0.8601433572262044,-0.31903183138351215
0.8701450241706952,0.09423932802492563
0.8801466911151858,0.05920767082235916
0.8901483580596766,0.08237294402071563
0.9001500250041674,0.020770288568711714
0.9101516919486582,0.2552611526886669
0.9201533588931489,0.12621553165365365
0.9301550258376396,0.18805066012149652
0.9401566927821304,0.14872104025718946
0.9501583597266211,0.20388083284445113
0.9601600266711119,0.1424905326661994
0.9701616936156027,0.14855860740066928
0.9801633605600933,0.1839615810538588
0.9901650275045841,0.11616722587756509
1.0001666944490748,0.06391803288534469
1.0101683613935657,0.1152370648815447
1.0201700283380564,0.17476186580074848
1.030171695282547,0.21183666942625862
1.040173362227038,0.19325315284946593
1.0501750291715286,0.19871071266879684
1.0601766961160193,0.053764552775473054
1.0701783630605102,0.14291647379862005
1.0801800300050008,0.209054308538834
1.0901816969494915,0.09487851325354979
1.1001833638939824,0.11745680026819968
1.110185030838473,0.2426626462670643
1.1201866977829638,0.07510305240205106
1.1301883647274547,0.22181477741386635
1.1401900316719453,0.18145318120568038
1.1501916986164362,0.14157634248471218
1.160193365560927,0.16512256255046137
1.1701950325054176,0.19608338974136624
1.1801966994499085,0.2626950304009759
1.1901983663943991,0.1992334204801644
1.2002000333388898,0.2691462249497783
1.2102017002833807,0.1722547350649008
1.2202033672278714,0.1444914860025013
1.230205034172362,0.1950914181194196
1.240206701116853,0.22224017591022555
1.2502083680613436,0.18036940695369655
1.2602100350058343,0.19155317513590392
1.2702117019503252,0.17174694874423357
1.2802133688948159,0.11298353733869825
1.2902150358393065,0.1787761668929865
1.3002167027837974,0.24463171218606444
1.310218369728288,0.2192712792664483
1.3202200366727788,0.2344904569937608
1.3302217036172697,0.211112868271011
1.3402233705617603,0.14675789163526123
1.350225037506251,0.20085503060825016
1.360226704450742,0.21472214695278394
1.3702283713952326,0.23010672107538288
1.3802300383397232,0.11860704106834696
1.3902317052842141,0.1443120285806787
1.4002333722287048,0.1375072950277338
1.4102350391731955,0.22004228885702543
1.4202367061176864,0.19281436495807147
1.430238373062177,0.14643051202176557
1.440240040006668,0.22250715625596254
1.4502417069511586,0.14850365720728984
1.4602433738956493,0.21043414456177076
1.4702450408401402,0.2106472627339307
1.4802467077846309,0.32503743939386137
1.4902483747291215,0.2070606142177024
1.5002500416736124,0.24408054467616835
1.510251708618103,0.29007216333944263
1.5202533755625938,0.28117878791203105
1.5302550425070847,0.24805878165419648
1.5402567094515753,0.23563602619832208
1.550258376396066,0.30436759126384794
1.560260043340557,0.21396348838982043
1.5702617102850476,0.30138054532697667
1.5802633772295382,0.3050423798508397
1.5902650441740291,0.17071302593747711
1.6002667111185198,0.2200094916708766
1.6102683780630105,0.24772528738200392
1.6202700450075014,0.22291196844554637
1.630271711951992,0.2798826020950637
1.6402733788964827,0.2940924930084057
1.6502750458409736,0.27798518003156386
1.6602767127854643,0.2130473789016973
1.670278379729955,0.23108368729523712
1.6802800466744459,0.25165217466966294
1.6902817136189365,0.07802274658277412
1.7002833805634272,0.7706713087751693
1.710285047507918,1.8452150618292968
1.7202867144524088,-0.15699798411208307
1.7302883813968994,0.20615004273534432
1.7402900483413903,0.28433328031931804
1.750291715285881,0.2828217065413593
1.7602933822303717,0.25354577086653224
1.7702950491748626,0.284743620733704
1.7802967161193533,0.2383314183953263
1.7902983830638441,0.29233815767919324
1.8003000500083348,0.2855330458117597
1.8103017169528255,0.22238330509683918
1.8203033838973164,0.28179987229503733
1.830305050841807,0.2328974049995325
1.8403067177862977,0.22167797111027393
1.8503083847307886,0.20051313068874202
1.8603100516752793,0.2862281250053139
1.87031171861977,0.31442941839343913
1.8803133855642609,0.29664490642544084
1.8903150525087515,0.306904334800783
1.9003167194532422,0.2992842713686508
1.910318386397733,0.294532282546972
1.9203200533422238,0.3739623579752922
1.9303217202867144,0.2000844426358357
1.9403233872312053,0.2852798752335158
1.950325054175696,0.3252382114121569
1.9603267211201867,0.3816008477851773
1.9703283880646776,0.18473594955213785
1.9803300550091683,0.32806551237747655
1.990331721953659,0.3211069809724656
2.0003333888981496,0.39501310547602175
2.0103350558426407,0.23351250323625214
2.0203367227871314,0.24134963164256895
2.030338389731622,0.1876928244562452
2.0403400566761127,0.32709882435095655
2.0503417236206034,0.2124802258733611
2.060343390565094,0.3435371266036397
2.070345057509585,0.2514319877818997
2.080346724454076,0.3885925841269362
2.0903483913985665,0.2867549772018051
2.100350058343057,0.31561217951507614
2.110351725287548,0.37359463330609155
2.1203533922320386,0.23818444613541578
2.1303550591765297,0.30972091738231877
2.1403567261210203,0.3747495301858744
2.150358393065511,0.2717908558347447
2.1603600600100017,0.31785276507194404
2.1703617269544924,0.35520929638960475
2.180363393898983,0.3252402358590279
2.190365060843474,0.39480270389910765
2.200366727787965,0.3542970364563257
2.2103683947324555,0.3307776623964616
2.220370061676946,0.33161995864446225
2.230371728621437,0.36689410252874394
2.2403733955659275,0.3574963843543007
2.2503750625104186,0.3159744232851384
2.2603767294549093,0.36785543012351796
2.2703783963994,0.2735904479430258
2.2803800633438907,0.2489620197656389
2.2903817302883813,0.3408360568694745
2.3003833972328724,0.37981691861016986
2.310385064177363,0.402542619968516
2.320386731121854,0.30866006162551946
2.3303883980663445,0.26009807690549136
2.340390065010835,0.288121636854916
2.350391731955326,0.25900181510838266
2.360393398899817,0.42183243224777633
2.3703950658443076,0.31445245418205614
2.3803967327887983,0.2979461247378016
2.390398399733289,0.3410587571332776
2.4004000666777796,0.33771155201215647
2.4104017336222703,0.26161648433288076
2.4204034005667614,0.32833114193966706
2.430405067511252,0.4220527025255107
2.4404067344557427,0.40380400539030603
2.4504084014002334,0.3821425764203485
2.460410068344724,0.3569369863043413
2.4704117352892148,0.38298636127760055
2.480413402233706,0.4097896909734434
2.4904150691781965,0.28217883722248494
2.5004167361226872,0.31482421711842845
2.510418403067178,0.2992426297099088
2.5204200700116686,0.4396860587857517
2.5304217369561592,0.3521683226062347
2.5404234039006504,0.3679633405707562
2.550425070845141,0.2880980789380593
2.5604267377896317,0.8904806267637584
2.5704284047341224,1.885510013377573
2.580430071678613,0.09433331773557971
2.590431738623104,0.22518247629431107
2.600433405567595,0.35831691875306565
2.6104350725120855,0.3925716673533958
2.620436739456576,0.42712330086652583
2.630438406401067,0.4931030468617753
2.6404400733455575,0.29382334541922445
2.6504417402900486,0.3497741593878118
2.6604434072345393,0.27025520796979535
2.67044507417903,0.37693933128124685
2.6804467411235207,0.27677750689217473
2.6904484080680113,0.4578511843878104
2.700450075012502,0.39318465970893246
2.710451741956993,0.40543688002584555
2.720453408901484,0.3036616396348238
2.7304550758459745,0.3702892276644914
2.740456742790465,0.392058834470116
2.750458409734956,0.41161242163392814
2.7604600766794465,0.2733578078466342
2.7704617436239376,0.3750354795934771
2.7804634105684283,0.3740326795981992
2.790465077512919,0.4135486362109771
2.8004667444574096,0.4615903508430297
2.8104684114019003,0.33732008821919945
2.820470078346391,0.3977079573731671
2.830471745290882,0.37514713999374455
2.8404734122353728,0.4150576885510974
2.8504750791798634,0.34102765755968084
2.860476746124354,0.3864554502152915
2.8704784130688448,0.4420821556066572
2.880480080013336,0.4442546111896839
2.8904817469578266,0.42896880125707143
2.9004834139023172,0.5101502606886769
2.910485080846808,0.41100029673290245
2.9204867477912986,0.4414709141508309
2.9304884147357892,0.44890383025581587
2.9404900816802804,0.2894615442475891
2.950491748624771,0.4096588677348888
2.9604934155692617,0.3929100386080785
2.9704950825137524,0.37531290966969827
2.980496749458243,0.4145659475848802
2.9904984164027337,0.39072218347282794
3.000500083347225,0.4070790248974324
3.0105017502917155,0.3077188738728479
3.020503417236206,0.4026219474652418
3.030505084180697,0.43290718765706115
3.0405067511251875,0.45804958773440774
3.050508418069678,0.3428997904010662
3.0605100850141693,0.4701584352078889
3.07051175195866,0.4056209875133763
3.0805134189031507,0.3342399902415328
3.0905150858476413,0.41114247546120447
3.100516752792132,0.41188854134403013
3.1105184197366227,0.3852178287428477
3.120520086681114,0.3517980287341612
3.1305217536256045,0.3451466838264406
3.140523420570095,0.4470509040145919
3.150525087514586,0.43188276227399297
3.1605267544590765,0.35523614212995835
3.170528421403567,0.46328723757802975
3.1805300883480583,0.3559909647442004
3.190531755292549,0.49768993788012705
3.2005334222370396,0.41157405788076856
3.2105350891815303,0.4093893239622357
3.220536756126021,0.37966791300382485
3.230538423070512,0.4179047773260633
3.2405400900150028,0.46048439865006857
3.2505417569594934,0.44871132949435755
3.260543423903984,0.5237044457448413
3.270545090848475,0.35831665653094036
3.2805467577929655,0.4444764668676743
3.2905484247374566,0.41750348198495013
3.3005500916819472,0.3822382567483901
3.310551758626438,0.3292425667684986
3.3205534255709286,0.385794803275902
3.3305550925154193,0.41156526467427423
3.34055675945991,0.3754064405387968
3.350558426404401,0.39436910736786185
3.3605600933488917,0.42770942970041026
3.3705617602933824,0.4139807282674573
3.380563427237873,0.39575375253915696
3.3905650941823637,0.4165561427821935
3.4005667611268544,0.2237085036957175
3.4105684280713455,0.9888581328851913
3.420570095015836,1.924893781552031
3.430571761960327,0.017961594524470045
3.4405734289048175,0.3551177519104954
3.450575095849308,0.4673189642439094
3.460576762793799,0.4306603625380158
3.47057842973829,0.4599919482572787
3.4805800966827807,0.4895108562832763
3.4905817636272714,0.4033729348757874
3.500583430571762,0.4233379925972635
3.5105850975162527,0.4765436619709072
3.5205867644607434,0.38738241428611364
3.5305884314052345,0.47050252063305453
3.540590098349725,0.4779953484062004
3.550591765294216,0.40236657112703583
3.5605934322387065,0.4830854307759036
3.570595099183197,0.4650878841612363
3.5805967661276883,0.3878900774651587
3.590598433072179,0.28339812811063997
3.6006001000166696,0.4786095559986946
3.6106017669611603,0.33171736886120096
3.620603433905651,0.415366090728153
3.6306051008501417,0.5907097773802492
3.6406067677946328,0.5125680198914102
3.6506084347391234,0.5476448446699799
3.660610101683614,0.5488750721165263
3.670611768628105,0.4434397850428265
3.6806134355725955,0.44576263323621607
3.690615102517086,0.4936402347969617
3.7006167694615772,0.42682622199154957
3.710618436406068,0.41376733727055914
3.7206201033505586,0.4862946994709187
3.7306217702950493,0.4221918973499096
3.74062343723954,0.523761470781342
3.7506251041840306,0.4894747749066648
3.7606267711285217,0.4801432313484523
3.7706284380730124,0.5187692714789023
3.780630105017503,0.32103858328383983
3.7906317719619937,0.48402862830886073
3.8006334389064844,0.42503541159572156
3.810635105850975,0.417100016283778
3.820636772795466,0.42026831165517065
3.830638439739957,0.4174471214827332
3.8406401066844476,0.5236746527637
3.8506417736289382,0.5205274204599719
3.860643440573429,0.4583291103136803
3.87064510751792,0.4492612853843563
3.8806467744624107,0.4116242510894417
3.8906484414069014,0.41625002312761183
3.900650108351392,0.5198475739642583
3.9106517752958827,0.4388029486383599
3.9206534422403734,0.5172370672781227
3.9306551091848645,0.3732262486012364
3.940656776129355,0.5107572447239235
3.950658443073846,0.3394231579325851
3.9606601100183365,0.555255016266909
3.970661776962827,0.5070227948514205
3.980663443907318,0.537848752083301
3.990665110851809,0.4521619965747457
4.000666777796299,0.5101340257433363
4.01066844474079,0.46731376105568295
4.020670111685281,0.43758302930391146
4.030671778629772,0.4825089280719708
4.040673445574263,0.3806279983774728
4.0506751125187535,0.574987735372837
4.060676779463244,0.49847399649477714
4.070678446407735,0.47349208776323576
4.0806801133522255,0.5395188408611582
4.090681780296716,0.533845336098922
4.100683447241207,0.5210812680157184
4.1106851141856975,0.40590458554950654
4.120686781130188,0.487889899258387
4.130688448074679,0.5031684173112914
4.14069011501917,0.569763467227512
4.150691781963661,0.4824044384479196
4.160693448908152,0.5854633889551901
4.170695115852642,0.5747567723116
4.180696782797133,0.49695750556049306
4.190698449741624,0.5240362022827203
4.200700116686114,0.4362516131796838
4.210701783630605,0.5511916170006416
4.220703450575096,0.4784279966633129
4.2307051175195864,0.57074508040668
4.240706784464077,0.5519160062688865
4.250708451408569,0.4347385279047083
4.260710118353059,0.3562167924123273
4.27071178529755,1.1104782488393445
4.280713452242041,1.9466157909368589
4.290715119186531,0.0711938193540162
4.300716786131022,0.3598990754915052
4.310718453075513,0.4917229644600072
4.320720120020003,0.4915076828258151
4.330721786964494,0.37825561809010777
4.340723453908985,0.4212845824729008
4.350725120853475,0.4299289253447683
4.360726787797966,0.534881116016853
4.370728454742458,0.4955481722293258
4.380730121686948,0.4839351562382121
4.390731788631439,0.44177059780528793
4.40073345557593,0.41983680619843033
4.41073512252042,0.45449081752053816
4.420736789464911,0.4907470499728052
4.430738456409402,0.490599266959041
4.440740123353892,0.5050575314104093
4.450741790298383,0.5330866436221596
4.460743457242874,0.40868063313959
4.470745124187364,0.5238253143147634
4.480746791131855,0.4918507637726629
4.490748458076347,0.4489222550570218
4.500750125020837,0.4075049671821448
4.510751791965328,0.39203099032721667
4.520753458909819,0.5635963511937627
4.530755125854309,0.4940122526614941
4.5407567927988,0.5074741870542618
4.550758459743291,0.5843585448860433
4.560760126687781,0.4196078878808217
4.570761793632272,0.4493857341348483
4.580763460576763,0.5289871701825793
4.590765127521253,0.5208550897754674
4.600766794465745,0.5158613882677671
4.6107684614102356,0.5515991977978654
4.620770128354726,0.5470294872531233
4.630771795299217,0.4685314242991268
4.640773462243708,0.5435266105581259
4.650775129188198,0.49471138133022424
4.660776796132689,0.48830565481071875
4.67077846307718,0.5502858625019167
4.68078013002167,0.5358253204473824
4.690781796966161,0.542039308832646
4.700783463910652,0.48075912111883945
4.710785130855142,0.48347301478386717
4.720786797799634,0.5609558240500454
4.7307884647441245,0.545737288691171
4.740790131688615,0.5152669453905326
4.750791798633106,0.43659175849053317
4.7607934655775965,0.44022947963813736
4.770795132522087,0.4952886963270346
4.780796799466578,0.46746054294178135
4.7907984664110685,0.48295395613784886
4.800800133355559,0.43988243054093834
4.81080180030005,0.4174533336740036
4.820803467244541,0.4919480397104101
4.830805134189032,0.51792101372966
4.840806801133523,0.5145938375390252
4.8508084680780135,0.4621334790927321
4.860810135022504,0.567310515959385
4.870811801966995,0.48951987880337416
4.8808134689114855,0.44008853635279127
4.890815135855976,0.4084287265988665
4.900816802800467,0.4827485198164581
4.9108184697449575,0.44286701767790637
4.920820136689448,0.5500481280301602
4.930821803633939,0.5750602504772682
4.9408234705784295,0.5331097707953623
4.950825137522921,0.520943095023583
4.960826804467412,0.47237503678018417
4.970828471411902,0.578597108472736
4.980830138356393,0.5254920700042346
4.990831805300884,0.535041775398468
5.0008334722453744,0.5409546121206054
5.010835139189865,0.5209593606043631
5.020836806134356,0.532368028672581
5.0308384730788465,0.467465828962643
5.040840140023337,0.42480857182286796
5.050841806967828,0.43915679001171687
5.0608434739123185,0.49743919746268556
5.07084514085681,0.5639367691054014
5.080846807801301,0.524982876853238
5.090848474745791,0.4810415396897283
5.100850141690282,0.4958891834421341
5.110851808634773,0.466947803144059
5.120853475579263,0.25471682783550287
5.130855142523754,1.111508782692295
5.140856809468245,2.029660086438376
5.150858476412735,0.09536100538319425
5.160860143357226,0.39108564233945825
5.170861810301717,0.4676567530763492
5.180863477246208,0.4823186102610243
5.190865144190699,0.5128702739222705
5.20086681113519,0.4138497282977257
5.21086847807968,0.5561774149772861
5.220870145024171,0.45329122706058517
5.230871811968662,0.4927634790471453
5.240873478913152,0.43378104750728697
5.250875145857643,0.4948420366007174
5.260876812802134,0.49464460465895765
5.270878479746624,0.5049695009929245
5.280880146691115,0.5721975796705866
5.290881813635606,0.5370710966625848
5.300883480580097,0.41866915164291924
5.310885147524588,0.5680446626485124
5.320886814469079,0.45140173627200486
5.330888481413569,0.5276972760134923
5.34089014835806,0.4790933117424426
5.350891815302551,0.6294524660741704
5.360893482247041,0.47491059800091145
5.370895149191532,0.4011157184074458
5.380896816136023,0.5102656547882304
5.390898483080513,0.48423004868512404
5.400900150025004,0.5130533737260822
5.410901816969495,0.6493847956077226
5.420903483913986,0.48311011936882753
5.430905150858477,0.4369103895771995
5.440906817802968,0.501046397302015
5.450908484747458,0.5543917733885444
5.460910151691949,0.49743510506539
5.47091181863644,0.5162832243876881
5.48091348558093,0.41465118480035124
5.490915152525421,0.57390091907057
5.500916819469912,0.4342136618977159
5.510918486414402,0.4913863489676928
5.520920153358893,0.43408915171150453
5.5309218203033845,0.44865387239170634
5.540923487247875,0.504014854876206
5.550925154192366,0.5328508754966238
5.5609268211368565,0.5526640515493552
5.570928488081347,0.45949286494766073
5.580930155025838,0.43212698453625753
5.590931821970329,0.5437236432494388
5.600933488914819,0.5250161998595879
5.61093515585931,0.5048302806915261
5.620936822803801,0.5926654346804112
5.630938489748291,0.4701228911486958
5.640940156692782,0.4203340401500481
5.6509418236372735,0.46091819324707584
5.660943490581764,0.45735308260653335
5.670945157526255,0.5219353785065405
5.6809468244707455,0.5271282191920137
5.690948491415236,0.4890774289499916
5.700950158359727,0.4108068907852791
5.7109518253042175,0.4616296243311601
5.720953492248708,0.5594195533764188
5.730955159193199,0.585625561950078
5.7409568261376895,0.5568923928231128
5.75095849308218,0.5111162098966733
5.760960160026672,0.43913228127024406
5.7709618269711624,0.5270363721870855
5.780963493915653,0.5913431647228431
5.790965160860144,0.5195422449876066
5.8009668278046345,0.4688231377582333
5.810968494749125,0.45938067802630234
5.820970161693616,0.4577860147413502
5.8309718286381065,0.4670742028280763
5.840973495582597,0.6063639070835348
5.850975162527088,0.4737198973514478
5.8609768294715785,0.5166602805625059
5.870978496416069,0.3853911109929418
5.880980163360561,0.4956486346930873
5.890981830305051,0.4160733194781816
5.900983497249542,0.4661223890330952
5.910985164194033,0.4568370807086148
5.920986831138523,0.47029078132790636
5.930988498083014,0.4266029119805459
5.940990165027505,0.4829506857453792
5.950991831971995,0.44129909752459984
5.960993498916486,0.4977743052244762
5.970995165860977,0.296892718828983
5.9809968328054675,0.9307201631509625
5.990998499749958,1.9503722898194797
6.00100016669445,0.06086710820885199
6.01100183363894,0.3466025447911903
6.021003500583431,0.4024154354601837
6.031005167527922,0.41622868472013336
6.041006834472412,0.45737645437310465
6.051008501416903,0.4870359083955211
6.061010168361394,0.4100113586012329
6.071011835305884,0.4286296909990468
6.081013502250375,0.4408338692581797
6.091015169194866,0.4762703442473077
6.101016836139356,0.5715144824891716
6.111018503083848,0.4854942282991566
6.121020170028339,0.5469111957628031
6.131021836972829,0.4488145517189491
6.14102350391732,0.4472175451327006
6.151025170861811,0.42476251444633295
6.161026837806301,0.5118600035558594
6.171028504750792,0.5037919327300613
6.181030171695283,0.4832353477534076
6.191031838639773,0.41167029562749535
6.201033505584264,0.6002538845457044
6.211035172528755,0.46329140661556306
6.221036839473245,0.43120916709663676
6.231038506417737,0.5180673911038107
6.241040173362228,0.44773717372399396
6.251041840306718,0.526507648613268
6.261043507251209,0.5248872846579492
6.2710451741957,0.43779546533902347
6.28104684114019,0.43728850278147535
6.291048508084681,0.4497732053634707
6.301050175029172,0.4856900611438132
6.311051841973662,0.488281283467505
6.321053508918153,0.45455776637743306
6.331055175862644,0.45796150999225504
6.341056842807134,0.3988332993329759
6.351058509751626,0.372975277962124
6.361060176696117,0.46887561541570555
6.371061843640607,0.41817768403802413
6.381063510585098,0.39016442734071
6.391065177529589,0.38384493659967667
6.401066844474079,0.4249758766850963
6.41106851141857,0.42172353247539734
6.421070178363061,0.3950700112786118
6.431071845307551,0.49686535129268744
6.441073512252042,0.429568369729451
6.451075179196533,0.5610139612246795
6.461076846141024,0.40638924302247453
6.471078513085515,0.4156386769395161
6.4810801800300055,0.3649664718158745
6.491081846974496,0.4451418843866997
6.501083513918987,0.38469519615367354
6.5110851808634775,0.3848032932141988
6.521086847807968,0.4601622255509457
6.531088514752459,0.42889823092861984
6.54109018169695,0.5360416738246302
6.55109184864144,0.4297199717578543
6.561093515585931,0.450033584512646
6.571095182530422,0.3155284439508733
6.581096849474913,0.3419615873974057
6.591098516419404,0.45044951311911646
6.6011001833638945,0.5078999599211814
6.611101850308385,0.39141740490193205
6.621103517252876,0.4795698390803716
6.6311051841973665,0.4226001209576967
6.641106851141857,0.3831892071546221
6.651108518086348,0.5217732700064984
6.6611101850308385,0.46189587665283294
6.671111851975329,0.39578768045448126
6.68111351891982,0.40436243842427666
6.6911151858643105,0.40083227645218256
6.701116852808802,0.44977860754606636
6.711118519753293,0.4412544664539965
6.721120186697783,0.37973096587329636
6.731121853642274,0.48985989399369867
6.741123520586765,0.45110909330929466
6.7511251875312555,0.45861535090876676
6.761126854475746,0.4175564732285023
6.771128521420237,0.5249853658202501
6.7811301883647275,0.39447314714062215
6.791131855309218,0.439253409597596
6.801133522253709,0.4444897143594812
6.8111351891982,0.3221883629472523
6.821136856142691,0.45411506639119276
6.831138523087182,0.21738878753671045
6.841140190031672,1.0254048102756688
6.851141856976163,1.8364534216229227
6.861143523920654,0.02463909756048319
6.871145190865144,0.34264824004357913
6.881146857809635,0.39322190605383867
6.891148524754126,0.4439784808239809
6.901150191698616,0.40431573013849514
6.911151858643107,0.36823375242753076
6.921153525587598,0.35914175341410326
6.931155192532089,0.4552199183889973
6.94115685947658,0.3704349950108533
6.951158526421071,0.4853782370703477
6.961160193365561,0.3737892992450404
6.971161860310052,0.43509425155489045
6.981163527254543,0.45566906274341473
6.991165194199033,0.4319783216644356
7.001166861143524,0.352141598307202
7.011168528088015,0.4528693876639282
7.021170195032505,0.3763862010989768
7.031171861976996,0.40626076324450366
7.041173528921487,0.4415814771176968
7.051175195865978,0.4304181046291676
7.061176862810469,0.3787885444232322
7.07117852975496,0.4664493679730328
7.08118019669945,0.42051791672782185
7.091181863643941,0.4272363171776331
7.101183530588432,0.3380600471038887
7.111185197532922,0.4241530599073942
7.121186864477413,0.45061461854085527
7.131188531421904,0.36406545739833907
7.141190198366394,0.35796907380897597
7.151191865310885,0.38600150419277834
7.161193532255377,0.38995044187926275
7.171195199199867,0.4562724101345431
7.181196866144358,0.3963460983800156
7.191198533088849,0.36295241212897833
7.201200200033339,0.4424137996544359
7.21120186697783,0.47276733928402015
7.221203533922321,0.29936435244612525
7.231205200866811,0.395679057871107
7.241206867811302,0.35403477731113747
7.251208534755793,0.38049491669468755
7.261210201700283,0.35370910203078937
7.271211868644774,0.3749580774478853
7.2812135355892655,0.4774719345592048
7.291215202533756,0.340379130669399
7.301216869478247,0.4380778802677886
7.311218536422738,0.3278153665941094
7.321220203367228,0.2919532408174886
7.331221870311719,0.3597096136230773
7.34122353725621,0.39235860296641967
7.3512252042007,0.32210070527782864
7.361226871145191,0.33303448823686155
7.371228538089682,0.3599852968001141
7.381230205034172,0.38579100743109773
7.391231871978664,0.2956042030812842
7.4012335389231545,0.3800069513756542
7.411235205867645,0.3854470324294391
7.421236872812136,0.36941454092259085
7.4312385397566265,0.3759482122764908
7.441240206701117,0.4713532941913344
7.451241873645608,0.27975878627610606
7.4612435405900985,0.40708097641000607
7.471245207534589,0.29080834229167035
7.48124687447908,0.3271349835180968
7.4912485414235706,0.3122173482390705
7.501250208368061,0.3950164773773109
7.511251875312553,0.33268110639722737
7.5212535422570435,0.36788316454322284
7.531255209201534,0.41702394810300825
7.541256876146025,0.3403037026540976
7.5512585430905155,0.34464833795336774
7.561260210035006,0.34341009833981606
7.571261876979497,0.29571958355110944
7.5812635439239875,0.36196633919748894
7.591265210868478,0.35774787500346766
7.601266877812969,0.3934556766616484
7.6112685447574595,0.3619222682499968
7.62127021170195,0.31357645442305904
7.631271878646442,0.31804517171407787
7.641273545590932,0.3496909939701165
7.651275212535423,0.2902619641693449
7.661276879479914,0.3434450964506137
7.671278546424404,0.3564593686599132
7.681280213368895,0.30048162702054815
7.691281880313386,0.16074436019993255
7.7012835472578764,0.7942936406127658
7.711285214202367,1.7470830979668133
7.721286881146858,-0.04504311528206541
7.7312885480913485,0.22318558870905486
7.74129021503584,0.3828954444810713
7.751291881980331,0.30914716522485314
7.761293548924821,0.25458794680504604
7.771295215869312,0.3203214201756127
7.781296882813803,0.31503032270252596
7.791298549758293,0.32162419475137727
7.801300216702784,0.39474772442723827
7.811301883647275,0.2836815927903859
7.821303550591765,0.3380078843458678
7.831305217536256,0.2793039162401148
7.841306884480747,0.30758724199765625
7.851308551425237,0.3853922266953004
7.861310218369729,0.3774960169537339
7.87131188531422,0.28974443076732687
7.88131355225871,0.3190230936597767
7.891315219203201,0.23312246054114816
7.901316886147692,0.3321850128921222
7.911318553092182,0.4036200761846056
7.921320220036673,0.3069595299022648
7.931321886981164,0.23009779370853878
7.941323553925654,0.3311487811480786
7.951325220870145,0.32890663759396543
7.961326887814636,0.38423231993586743
7.971328554759126,0.3420465100735308
7.981330221703618,0.2792924915880195
7.991331888648109,0.2960482704028163
8.001333555592598,0.34991108162407647
8.01133522253709,0.23973067127881947
8.02133688948158,0.24372867887310082
8.031338556426071,0.29756311010062575
8.041340223370563,0.3120605440145939
8.051341890315053,0.24718430667884214
8.061343557259544,0.3724038460171701
8.071345224204034,0.2666957264658871
8.081346891148526,0.2703790610253676
8.091348558093015,0.27119807680786523
8.101350225037507,0.30300550461854403
8.111351891981997,0.2400300033612766
8.121353558926488,0.3020748232463628
8.131355225870978,0.2648123474515096
8.14135689281547,0.2620497983126769
8.151358559759961,0.26330772435527044
8.161360226704451,0.2762102914278485
8.171361893648942,0.2873828498845704
8.181363560593432,0.29698264259714285
8.191365227537924,0.30139377454871197
8.201366894482414,0.30721277832781924
8.211368561426905,0.34438063683888187
8.221370228371395,0.23526318185066483
8.231371895315887,0.31165490385731276
8.241373562260376,0.28598047366901236
8.251375229204868,0.1536782807643346
8.261376896149358,0.23912472863222847
8.27137856309385,0.19611915987036618
8.28138023003834,0.17221881142591255
8.29138189698283,0.21446807685589414
8.301383563927322,0.3523701676478628
8.311385230871812,0.21059873693646322
8.321386897816303,0.24832535702774322
8.331388564760793,0.2959905504369632
8.341390231705285,0.26987320765594996
8.351391898649775,0.29702435569359
8.361393565594266,0.24782582201812414
8.371395232538756,0.18952994598158407
8.381396899483248,0.27308671574970095
8.391398566427739,0.2535847575769072
8.401400233372229,0.20734141098116232
8.41140190031672,0.1530711619768941
8.42140356726121,0.23406231667700303
8.431405234205702,0.2417387417658999
8.441406901150192,0.12753427337521464
8.451408568094683,0.1952131396159575
8.461410235039173,0.23649957396063886
8.471411901983664,0.2726156280003165
8.481413568928154,0.26954293623184217
8.491415235872646,0.13683222823900898
8.501416902817137,0.18836540683158837
8.511418569761627,0.2877414360712507
8.521420236706119,0.2479396371998776
8.531421903650608,0.19323685133197332
8.5414235705951,0.35537192444487187
8.55142523753959,0.06847680754871019
8.561426904484081,0.7816799639544647
8.571428571428571,1.6947180893191376
8.581430238373063,-0.20949213496914917
8.591431905317553,0.11608555874915838
8.601433572262044,0.24984878971312363
8.611435239206534,0.2694638264995759
8.621436906151025,0.21489718671582114
8.631438573095517,0.1868027685141493
8.641440240040007,0.16975034011444434
8.651441906984498,0.14790072276844476
8.661443573928988,0.15207331573514096
8.67144524087348,0.21814704820846975
8.68144690781797,0.23053942744182782
8.691448574762461,0.2020914295451718
8.70145024170695,0.19513001974369457
8.711451908651442,0.22828928962865047
8.721453575595932,0.13187953691421772
8.731455242540424,0.2785276583591139
8.741456909484915,0.10016458614875519
8.751458576429405,0.10456553191798315
8.761460243373897,0.13334302258920125
8.771461910318386,0.16555062706749074
8.781463577262878,0.09791076551162467
8.791465244207368,0.20211714065052244
8.80146691115186,0.0966780516142654
8.811468578096349,0.18197478301347295
8.82147024504084,0.11648026059064036
8.83147191198533,0.1853311990344744
8.841473578929822,0.12064039954640374
8.851475245874314,0.30553100036060915
8.861476912818803,0.21078955438057453
8.871478579763295,0.17629738176823648
8.881480246707785,0.09390104733152355
8.891481913652276,0.2167268141388397
8.901483580596766,0.15900148734639175
8.911485247541258,0.18090670713642737
8.921486914485747,0.13089795771393206
8.931488581430239,0.19349030140506746
8.941490248374729,0.14962958686874214
8.95149191531922,0.13876329030126927
8.96149358226371,0.1707898899278476
8.971495249208202,0.16697856227677263
8.981496916152693,0.21713912502104465
8.991498583097183,0.26127006869219627
9.001500250041675,0.19681572557163138
9.011501916986164,0.23312067856427993
9.021503583930656,0.17723491567984945
9.031505250875146,0.11256061813871286
9.041506917819637,0.15602673435927233
9.051508584764127,0.136925990392545
9.061510251708619,0.05568349904475582
9.071511918653108,0.18200606664532437
9.0815135855976,0.12605103216943783
9.091515252542091,0.17884441522583328
9.101516919486581,0.21616957311180765
9.111518586431073,0.16111956713149644
9.121520253375563,0.1288000732824123
9.131521920320054,0.20854092167701865
9.141523587264544,0.10578416870300873
9.151525254209036,0.1302461253944515
9.161526921153525,0.13157558708288772
9.171528588098017,0.08834741352033984
9.181530255042507,0.18309734920885082
9.191531921986998,0.12044266195447828
9.20153358893149,0.20517377907656265
9.21153525587598,0.080159522188176
9.221536922820471,0.13114386862669764
9.231538589764961,0.12576000315533037
9.241540256709452,0.07259007471432932
9.251541923653942,0.17210048964799207
9.261543590598434,0.08056161468245299
9.271545257542924,0.2005724174608005
9.281546924487415,0.12149841476737736
9.291548591431905,0.17608556400899772
9.301550258376396,0.15510567103463552
9.311551925320888,0.11070333321174937
9.321553592265378,0.06342179143834953
9.33155525920987,0.16219519883396638
9.34155692615436,0.125734150471113
9.35155859309885,0.09360166016560732
9.36156026004334,0.06083630190012162
9.371561926987832,0.07738199493058134
9.381563593932322,0.11843261863579399
9.391565260876813,0.22670137044548194
9.401566927821303,-0.09503823584222824
9.411568594765795,0.672004832609302
9.421570261710285,1.4950385591169684
9.431571928654776,-0.3178010402595456
9.441573595599268,-0.011319016860727574
9.451575262543757,0.04548139560869736
9.461576929488249,0.11938593122165057
9.471578596432739,0.14226997653107662
9.48158026337723,0.11424101867632133
9.49158193032172,0.030790793759618372
9.501583597266212,0.09528954029692203
9.511585264210701,0.05705780045698275
9.521586931155193,0.06327334366766195
9.531588598099683,0.0718744451348303
9.541590265044174,0.10874662623544457
9.551591931988666,0.21881809527197424
9.561593598933156,-0.024941172180741017
9.571595265877647,0.13816882727491786
9.581596932822137,-0.01301756112492626
9.591598599766629,0.027375109206669405
9.601600266711118,-0.050800784575265684
9.61160193365561,0.07473444430206481
9.6216036006001,0.09392255375645553
9.631605267544591,0.06998667807157964
9.641606934489081,0.15290068727351686
9.651608601433573,0.06618931305235487
9.661610268378064,0.030557917466056676
9.671611935322554,0.05543122001024396
9.681613602267046,0.043749032419330175
9.691615269211535,0.01881327167813019
9.701616936156027,0.03321376489301355
9.711618603100517,0.06456672784330138
9.721620270045008,0.05115208331590725
9.731621936989498,0.042692266946863455
9.74162360393399,0.05280816243670898
9.75162527087848,0.03379369659503746
9.761626937822971,0.05335617249111051
9.77162860476746,0.03681573984148896
9.781630271711952,-0.013476998544343574
9.791631938656444,0.005793664416458573
9.801633605600934,0.056052359047017136
9.811635272545425,0.002832362878708774
9.821636939489915,-0.00548462517658398
9.831638606434407,-0.08434907691838359
9.841640273378896,0.028892845336696667
9.851641940323388,0.07174546736863567
9.861643607267878,-0.020638353841227336
9.87164527421237,0.04379204334234517
9.881646941156859,-0.010271798530000337
9.89164860810135,0.01564622657399809
9.901650275045842,0.0840601439820253
9.911651941990332,0.11385137087191108
9.921653608934824,0.080051553113498
9.931655275879313,0.07984348401505993
9.941656942823805,-0.0657273474548426
9.951658609768295,0.030124524649413502
9.961660276712786,-0.00709389504483094
9.971661943657276,0.012744932138896051
9.981663610601768,0.04095180960506357
9.991665277546257,0.06496618290773207
10.001666944490749,-0.10862688208865316
10.01166861143524,-0.034600596285532914
10.02167027837973,-0.04416786680723377
10.031671945324222,0.10251229390305883
10.041673612268712,-0.07364088962980857
10.051675279213203,-0.06521084809979694
10.061676946157693,-0.0696346226481499
10.071678613102184,-0.008210342272829515
10.081680280046674,0.0783776432571295
10.091681946991166,0.01021367782866591
10.101683613935656,0.03962449855008492
10.111685280880147,-0.05386795989226725
10.121686947824637,-0.10508152602599896
10.131688614769129,-0.015221331502851383
10.14169028171362,-0.012580765965707669
10.15169194865811,-0.10844920549811886
10.161693615602601,0.0391582354335639
10.171695282547091,-0.027421108271999197
10.181696949491583,-0.011240432578679498
10.191698616436073,-0.061378063822443846
10.201700283380564,-0.07356606235595545
10.211701950325054,-0.029468018067342526
10.221703617269545,0.023525747528382747
10.231705284214035,-0.003596187285714994
10.241706951158527,0.020819168894590193
10.251708618103018,0.038336508282914315
10.261710285047508,-0.2542194099194924
10.271711951992,0.4543774453897382
10.28171361893649,1.494197196263174
10.291715285880981,-0.39541707242643365
10.30171695282547,-0.11114310805547203
10.311718619769962,-0.040563761631041015
10.321720286714452,-0.0844742637012697
10.331721953658944,-0.006436208016125135
10.341723620603434,-0.049316513211819506
10.351725287547925,-0.03190788003014712
10.361726954492417,-0.10598287078829191
10.371728621436906,-0.05397388584279858
10.381730288381398,-0.0608077753609578
10.391731955325888,-0.1323323521639895
10.40173362227038,-0.11339507545733443
10.41173528921487,-0.1544640180775062
10.42173695615936,-0.11562767344914007
10.43173862310385,-0.11517052277453241
10.441740290048342,-0.1246133566089354
10.451741956992832,-0.05574449824416918
10.461743623937323,-0.09606656222367513
10.471745290881813,-0.036340214126669
10.481746957826305,-0.09002985906534633
10.491748624770796,-0.08612725164141383
10.501750291715286,-0.12487668388529244
10.511751958659778,-0.024228883182166643
10.521753625604267,-0.15317189525675157
10.531755292548759,-0.017332502543980582
10.541756959493249,-0.037412292940303835
10.55175862643774,-0.07253769684046601
10.56176029338223,-0.08209742714645361
10.571761960326722,-0.09156954543259603
10.581763627271211,-0.15851437927860018
10.591765294215703,-0.15856118664587604
10.601766961160195,-0.03745615248603404
10.611768628104684,-0.09246135422820666
10.621770295049176,-0.18310101049695232
10.631771961993666,-0.11724860557129509
10.641773628938157,-0.15213794659913055
10.651775295882647,-0.08978210331358386
10.661776962827139,-0.13221902965719923
10.671778629771628,-0.020885326873376145
10.68178029671612,-0.091415981237228
10.69178196366061,-0.16161100385167126
10.701783630605101,-0.08514495111505484
10.711785297549593,-0.02676031797734961
10.721786964494083,0.012918855426451742
10.731788631438574,-0.21041821328514584
10.741790298383064,-0.06428576987742304
10.751791965327556,-0.14926927351694927
10.761793632272045,-0.03202075441606812
10.771795299216537,-0.07054679807273556
10.781796966161027,-0.09539229475810689
10.791798633105518,-0.17327276543374942
10.801800300050008,-0.1578939236719118
10.8118019669945,-0.1676980853941806
10.82180363393899,-0.06909027613977244
10.831805300883481,-0.09381824575618397
10.841806967827972,-0.09143196412469623
10.851808634772462,-0.15214690227414532
10.861810301716954,-0.10712783894147689
10.871811968661444,-0.17654023412561584
10.881813635605935,-0.09561586004627695
10.891815302550425,-0.09444801199286734
10.901816969494917,-0.13753965085042463
10.911818636439406,-0.19782820635953471
10.921820303383898,-0.10639876372994475
10.931821970328388,-0.22205687322982287
10.94182363727288,-0.15879282276224027
10.95182530421737,-0.18547454683959677
10.96182697116186,-0.1094474044741679
10.971828638106352,-0.1214800231506159
10.981830305050842,-0.1846851738309133
10.991831971995333,-0.13539168813912972
11.001833638939823,-0.19439129094129207
11.011835305884315,-0.16326313266212858
11.021836972828805,-0.1999703493189286
11.031838639773296,-0.08728334197092326
11.041840306717786,-0.23327961875035022
11.051841973662277,-0.14337124459208034
11.061843640606769,-0.13233481609910935
11.071845307551259,-0.1043071092131425
11.08184697449575,-0.15155924265128218
11.09184864144024,-0.21968270264162512
11.101850308384732,-0.11077546900399482
11.111851975329222,-0.12359449448878498
11.121853642273713,-0.3481997366649944
11.131855309218203,0.38005096092067003
11.141856976162694,1.3267582393208353
11.151858643107184,-0.4975719225110712
11.161860310051676,-0.2644385733462365
11.171861976996166,-0.17492036401277464
11.181863643940657,-0.10267275004796127
11.191865310885149,-0.31637205223667203
11.201866977829638,-0.20583559632611306
11.21186864477413,-0.17134413625724873
11.22187031171862,-0.18319949392795545
11.231871978663111,-0.21052737798950488
11.241873645607601,-0.19773862203839995
11.251875312552093,-0.24449817539444657
11.261876979496583,-0.2533076809701841
11.271878646441074,-0.21914369312197826
11.281880313385564,-0.19017230779074562
11.291881980330055,-0.12289125178223953
11.301883647274547,-0.2677581002141457
11.311885314219037,-0.1271269377514056
11.321886981163528,-0.16016273968467304
11.331888648108018,-0.19613981175352949
11.34189031505251,-0.1631518335108415
11.351891981997,-0.16559577594092453
11.361893648941491,-0.2811972533924474
11.37189531588598,-0.24573904356738968
11.381896982830472,-0.1253815122976752
11.391898649774962,-0.22938910350853042
11.401900316719454,-0.19571230403323653
11.411901983663945,-0.24824071108270257
11.421903650608435,-0.26278783255651783
11.431905317552927,-0.2015223327900603
11.441906984497416,-0.27202247714531336
11.451908651441908,-0.16159578222431892
11.461910318386398,-0.2860138749029211
11.47191198533089,-0.1537119582630702
11.481913652275379,-0.13640598146145805
11.49191531921987,-0.2688644276776855
11.50191698616436,-0.22681948155998574
11.511918653108852,-0.2903917327100039
11.521920320053344,-0.2554797176906247
11.531921986997833,-0.20218578538477477
11.541923653942325,-0.24263971283832297
11.551925320886815,-0.2052473547432586
11.561926987831306,-0.22131051982215952
11.571928654775796,-0.22064106947644913
11.581930321720288,-0.17256557926131016
11.591931988664777,-0.26788439210931614
11.601933655609269,-0.24280910173601866
11.611935322553759,-0.23671089128773623
11.62193698949825,-0.23608585256790376
11.63193865644274,-0.2856476424501427
11.641940323387232,-0.31105142272115827
11.651941990331723,-0.24023000192223176
11.661943657276213,-0.3009376989867847
11.671945324220705,-0.21462200670157153
11.681946991165194,-0.1940748917028746
11.691948658109686,-0.24702115432835023
11.701950325054176,-0.21512994367412772
11.711951991998667,-0.21106907680226078
11.721953658943157,-0.19502776112140707
11.731955325887649,-0.24877694003672873
11.741956992832138,-0.35917266547622323
11.75195865977663,-0.321623777484494
11.761960326721121,-0.20848108690237832
11.771961993665611,-0.21272039677884158
11.781963660610103,-0.24226185674206846
11.791965327554593,-0.22436227773482126
11.801966994499084,-0.25997238350445956
11.811968661443574,-0.11303455920021716
11.821970328388065,-0.22186597431099742
11.831971995332555,-0.23217705035307667
11.841973662277047,-0.33721012606484735
11.851975329221537,-0.267294504261409
11.861976996166028,-0.3713795277257125
11.87197866311052,-0.20374649053518018
11.88198033005501,-0.23255299350066375
11.891981996999501,-0.23517782956708683
11.90198366394399,-0.3147150509649106
11.911985330888482,-0.31157981726708156
11.921986997832972,-0.28064228644679307
11.931988664777464,-0.13938061947170363
11.941990331721954,-0.3311735239349487
11.951991998666445,-0.30038127953000726
11.961993665610935,-0.3940890174487132
11.971995332555426,-0.41365082711811685
11.981996999499916,0.1616212360355116
11.991998666444408,1.1729567718792482
12.0020003333889,-0.634316977541281
12.01200200033339,-0.550786374807188
12.02200366727788,-0.3361049915205619
12.03200533422237,-0.29699205577003157
12.042007001166862,-0.3462062493111556
12.052008668111352,-0.2621217759196923
12.062010335055843,-0.3265378564741516
12.072012002000333,-0.3776711038406154
12.082013668944825,-0.24475965536682154
12.092015335889315,-0.2148960951835185
12.102017002833806,-0.2800723069231774
12.112018669778298,-0.34409163016785504
12.122020336722787,-0.29426593341944424
12.132022003667279,-0.33454707797400124
12.142023670611769,-0.34500626653961025
12.15202533755626,-0.3349882008765467
12.16202700450075,-0.280995746435758
12.172028671445242,-0.29772415900810106
12.182030338389731,-0.2556714582873442
12.192032005334223,-0.344608708343202
12.202033672278713,-0.3056574884557285
12.212035339223204,-0.29894033269671905
12.222037006167696,-0.22250295947558266
12.232038673112186,-0.3039215761172541
12.242040340056677,-0.29235950116099413
12.252042007001167,-0.4512757966392126
12.262043673945659,-0.3275451531441245
12.272045340890148,-0.38189924885664744
12.28204700783464,-0.45311370533582435
12.29204867477913,-0.3245992547025003
12.302050341723621,-0.2740046301079967
12.312052008668111,-0.2673269538750029
12.322053675612603,-0.38744702500397804
12.332055342557092,-0.30959101470307193
12.342057009501584,-0.33120641764043274
12.352058676446076,-0.40823801559055173
12.362060343390565,-0.3016548781330554
12.372062010335057,-0.3969792739143822
12.382063677279547,-0.4501580129841223
12.392065344224038,-0.4458583171271702
12.402067011168528,-0.3515256847874845
12.41206867811302,-0.32700795489649415
12.42207034505751,-0.36146061416984715
12.432072012002001,-0.35559302744128973
12.44207367894649,-0.31331471591801785
12.452075345890982,-0.33400050109579416
12.462077012835474,-0.3573530310015248
12.472078679779964,-0.3560575897405991
12.482080346724455,-0.2513701957628669
12.492082013668945,-0.3126289060291073
12.502083680613437,-0.22726126815618505
12.512085347557926,-0.36737829377145836
12.522087014502418,-0.36466682509202164
12.532088681446908,-0.2962086387062141
12.5420903483914,-0.44968508045291966
12.552092015335889,-0.36949192697351657
12.56209368228038,-0.37103308546792724
12.572095349224872,-0.3612027243862214
12.582097016169362,-0.3519922162900725
12.592098683113853,-0.3356580144707222
12.602100350058343,-0.35506405292687804
12.612102017002835,-0.26035952211643676
12.622103683947325,-0.3997291151700062
12.632105350891816,-0.37049522602574325
12.642107017836306,-0.35871709652054823
12.652108684780798,-0.31184531656136194
12.662110351725287,-0.37480761752950204
12.672112018669779,-0.41523463783498055
12.682113685614269,-0.346280934709838
12.69211535255876,-0.3629774820638002
12.702117019503252,-0.4574979092184242
12.712118686447742,-0.36860617370034243
12.722120353392233,-0.372055922666115
12.732122020336723,-0.3511340458595925
12.742123687281214,-0.41078506218760263
12.752125354225704,-0.4431360282501925
12.762127021170196,-0.3880925987611808
12.772128688114686,-0.47718522705945926
12.782130355059177,-0.4540544748191052
12.792132022003667,-0.43502528288324127
12.802133688948159,-0.2633067796370858
12.81213535589265,-0.30426688078554714
12.82213702283714,-0.3238238934328303
12.832138689781631,-0.5144751991019509
12.842140356726121,0.12530713391229664
12.852142023670613,1.1536152005297922
12.862143690615103,-0.8119008392849153
12.872145357559594,-0.4698475292602301
12.882147024504084,-0.3686713250074154
12.892148691448575,-0.39887868304831997
12.902150358393065,-0.46310550250495763
12.912152025337557,-0.40116025258826454
12.922153692282048,-0.4091947126949983
12.932155359226538,-0.4179127340126359
12.94215702617103,-0.3783271886703541
12.95215869311552,-0.38043764111175765
12.962160360060011,-0.3426081385692346
12.9721620270045,-0.3602359240640542
12.982163693948992,-0.42187980613085724
12.992165360893482,-0.46226651117157735
13.002167027837974,-0.43987636867027136
13.012168694782464,-0.4028865994513476
13.022170361726955,-0.4627814332061426
13.032172028671445,-0.39162900340026113
13.042173695615936,-0.35521584701372916
13.052175362560428,-0.425990935856008
13.062177029504918,-0.4495834396510347
13.07217869644941,-0.3816292856984761
13.0821803633939,-0.37716583030319334
13.09218203033839,-0.4093166744990201
13.10218369728288,-0.40945209531544025
13.112185364227372,-0.4092801945702255
13.122187031171862,-0.3985157092853898
13.132188698116353,-0.4961072240785987
13.142190365060843,-0.50380135449944
13.152192032005335,-0.3851292995183441
13.162193698949826,-0.3588712432553516
13.172195365894316,-0.40821817237419705
13.182197032838808,-0.49368289846268515
13.192198699783297,-0.5295564864700738
13.202200366727789,-0.4079325826965986
13.212202033672279,-0.3449751617506728
13.22220370061677,-0.439038227994806
13.23220536756126,-0.5062293667901101
13.242207034505752,-0.4921377630573256
13.252208701450241,-0.3438461716926997
13.262210368394733,-0.48112601416862005
13.272212035339225,-0.4365626134211066
13.282213702283714,-0.41743065974067856
13.292215369228206,-0.49962801435585197
13.302217036172696,-0.4847786361132986
13.312218703117187,-0.43424166571419054
13.322220370061677,-0.4696871087872255
13.332222037006169,-0.4347687735452974
13.342223703950658,-0.41999266191866325
13.35222537089515,-0.40904372203894324
13.36222703783964,-0.4221261602554852
13.372228704784131,-0.41886946339309306
13.382230371728621,-0.395502827161444
13.392232038673113,-0.4591881633381565
13.402233705617604,-0.37502489459948996
13.412235372562094,-0.4145359029285226
13.422237039506586,-0.4814889407433261
13.432238706451075,-0.4644915194803134
13.442240373395567,-0.3872489546965348
13.452242040340057,-0.38845214326929106
13.462243707284548,-0.5561432617150017
13.472245374229038,-0.5213821140033253
13.48224704117353,-0.4970611161267583
13.49224870811802,-0.4528317103549121
13.502250375062511,-0.3992618467508414
13.512252042007002,-0.32840621989455654
13.522253708951492,-0.42633472219559526
13.532255375895984,-0.4713148219373542
13.542257042840474,-0.3875296517670629
13.552258709784965,-0.40419836523155733
13.562260376729455,-0.4102935115245897
13.572262043673947,-0.4488374476514382
13.582263710618436,-0.5325296259778007
13.592265377562928,-0.42068292004637386
13.602267044507418,-0.35449445015329395
13.61226871145191,-0.41437990470915465
13.6222703783964,-0.44018198504872896
13.63227204534089,-0.5150056784454419
13.642273712285382,-0.412347583707961
13.652275379229872,-0.41922871184560995
13.662277046174363,-0.5367807319835353
13.672278713118853,-0.45898686138185724
13.682280380063345,-0.5167303227861151
13.692282047007835,-0.7144134302210712
13.702283713952326,-0.007321695215167699
13.712285380896816,1.050389731528776
13.722287047841307,-0.8467055725851186
13.732288714785797,-0.5493403845644328
13.742290381730289,-0.4884272500021074
13.75229204867478,-0.5368999067618117
13.76229371561927,-0.48707260265053587
13.772295382563762,-0.40565943477687677
13.782297049508252,-0.452097304457293
13.792298716452743,-0.5144053469330988
13.802300383397233,-0.5047187570528393
13.812302050341724,-0.44987200321529
13.822303717286214,-0.487179621581877
13.832305384230706,-0.4854108191906165
13.842307051175196,-0.4385060675027946
13.852308718119687,-0.4548364372542911
13.862310385064179,-0.5135065569568411
13.872312052008668,-0.47068542979472977
13.88231371895316,-0.5458953568826326
13.89231538589765,-0.528151697074355
13.902317052842141,-0.46678978785433567
13.912318719786631,-0.48990195164386563
13.922320386731123,-0.5857974458126841
13.932322053675612,-0.4149437165762757
13.942323720620104,-0.5588148116922476
13.952325387564594,-0.4475515996410127
13.962327054509085,-0.5225794408304756
13.972328721453577,-0.5085486516420881
13.982330388398067,-0.4550604430159669
13.992332055342558,-0.49340420519024614
14.002333722287048,-0.5807859594428307
14.01233538923154,-0.4775706325266051
14.02233705617603,-0.4585598809014929
14.032338723120521,-0.5625219605999692
14.04234039006501,-0.5463295179474702
14.052342057009502,-0.4801592408080389
14.062343723953992,-0.4998750098141929
14.072345390898484,-0.4995969481351479
14.082347057842973,-0.45996709304244854
14.092348724787465,-0.38355346078691266
14.102350391731957,-0.41428699146298914
14.112352058676446,-0.573335129721605
14.122353725620938,-0.5446598231176126
14.132355392565428,-0.5140089625669149
14.14235705950992,-0.42959613493362203
14.152358726454409,-0.5142883251186385
14.1623603933989,-0.4654952865978855
14.17236206034339,-0.5385129480025819
14.182363727287882,-0.48956144153045095
14.192365394232372,-0.452262950020404
14.202367061176863,-0.48419201482319635
14.212368728121355,-0.43968475003712176
14.222370395065845,-0.5596903434882866
14.232372062010336,-0.49688441241960796
14.242373728954826,-0.5089539093001648
14.252375395899318,-0.5612014117019803
14.262377062843807,-0.39996023019955274
14.272378729788299,-0.3846662835697373
14.282380396732789,-0.4483239418644973
14.29238206367728,-0.45861600514191764
14.30238373062177,-0.4481484403045416
14.312385397566262,-0.48605466813674364
14.322387064510753,-0.5247490425152211
14.332388731455243,-0.5994334836167248
14.342390398399735,-0.47015557243615674
14.352392065344224,-0.5622603131913333
14.362393732288716,-0.5376861147201862
14.372395399233206,-0.5204906682946567
14.382397066177697,-0.5006689947185288
14.392398733122187,-0.4657013452435832
14.402400400066679,-0.46844263987203555
14.412402067011168,-0.43622498734794946
14.42240373395566,-0.4689902159917434
14.432405400900151,-0.3701678461599539
14.442407067844641,-0.552872052830692
14.452408734789133,-0.43847725766904005
14.462410401733623,-0.4315413928911995
14.472412068678114,-0.4626842322895815
14.482413735622604,-0.4564636055845075
14.492415402567095,-0.4317214025041169
14.502417069511585,-0.4149570175513537
14.512418736456077,-0.50244578296433
14.522420403400567,-0.4772867388825659
14.532422070345058,-0.5116403124349554
14.542423737289548,-0.6216629415113328
14.55242540423404,-0.6353059472464495
14.562427071178531,-0.0019867348757373823
14.57242873812302,1.049191476893874
14.582430405067512,-0.9693024357661393
14.592432072012002,-0.6162695222586305
14.602433738956494,-0.4809201968826107
14.612435405900984,-0.42081689190832267
14.622437072845475,-0.537092305908615
14.632438739789965,-0.40789699190127104
14.642440406734456,-0.5533650587527268
14.652442073678946,-0.3834171688278727
14.662443740623438,-0.530636584210228
14.67244540756793,-0.46355008168955814
14.68244707451242,-0.5093929997953086
14.69244874145691,-0.46159815169570456
14.7024504084014,-0.46785832356596274
14.712452075345892,-0.48033326498665807
14.722453742290382,-0.42849545863975236
14.732455409234873,-0.4876582527734996
14.742457076179363,-0.4929501495435943
14.752458743123855,-0.5349024016849625
14.762460410068345,-0.494039371661644
14.772462077012836,-0.5533389584119357
14.782463743957328,-0.5233534201818862
14.792465410901817,-0.5553933350847731
14.802467077846309,-0.49924283798029645
14.812468744790799,-0.536535408113863
14.82247041173529,-0.4301350633982467
14.83247207867978,-0.4976814014866888
14.842473745624272,-0.49714297952647973
14.852475412568761,-0.4778183914845578
14.862477079513253,-0.487341606567186
14.872478746457743,-0.41939544765007614
14.882480413402234,-0.4794608076705271
14.892482080346724,-0.493188001948535
14.902483747291216,-0.47265936319355994
14.912485414235707,-0.4773998050493009
14.922487081180197,-0.5468875347975481
14.932488748124689,-0.4834245649160023
14.942490415069178,-0.4078523650402396
14.95249208201367,-0.4713526709117931
14.96249374895816,-0.5507306168412409
14.972495415902651,-0.4301127800143875
14.982497082847141,-0.4022562833812384
14.992498749791633,-0.4752094667649848
15.002500416736122,-0.5237266910612041
15.012502083680614,-0.5283629554930236
15.022503750625106,-0.5165531532294576
15.032505417569595,-0.4581820800804709
15.042507084514087,-0.4707181140133382
15.052508751458577,-0.6042696604853586
15.062510418403068,-0.5191948889085566
15.072512085347558,-0.5566323702159534
15.08251375229205,-0.44573010365555693
15.09251541923654,-0.5600709747079098
15.102517086181031,-0.4848591079558897
15.11251875312552,-0.4464433609126029
15.122520420070012,-0.5121177372210898
15.132522087014504,-0.44665463919597165
15.142523753958994,-0.4425063353564151
15.152525420903485,-0.5162646386136903
15.162527087847975,-0.48584814055951175
15.172528754792467,-0.4924920489402649
15.182530421736956,-0.5681696799258127
15.192532088681448,-0.5368074005474974
15.202533755625938,-0.4977403767725682
15.21253542257043,-0.4433918045668125
15.222537089514919,-0.5174205604002884
15.23253875645941,-0.469900981534511
15.2425404234039,-0.49207104826780074
15.252542090348392,-0.5133183246954927
15.262543757292883,-0.44700738038550347
15.272545424237373,-0.48489267116425727
15.282547091181865,-0.5648143432186963
15.292548758126355,-0.589910832302528
15.302550425070846,-0.47792660711835044
15.312552092015336,-0.5616881945699026
15.322553758959828,-0.5079744343697594
15.332555425904317,-0.5356088731884828
15.342557092848809,-0.477080583557706
15.352558759793299,-0.5440686902213803
15.36256042673779,-0.44826403074367815
15.372562093682282,-0.5068272617777184
15.382563760626772,-0.43649974484464965
15.392565427571263,-0.48230961034838543
15.402567094515753,-0.6390702075007617
15.412568761460244,0.023800655554148325
15.422570428404734,0.9733116405601256
15.432572095349226,-0.927824298356029
15.442573762293716,-0.6857688915408428
15.452575429238207,-0.4581967406762819
15.462577096182697,-0.488002924307177
15.472578763127188,-0.4647703720181877
15.48258043007168,-0.5516346538750708
15.49258209701617,-0.4531072067519879
15.502583763960661,-0.45239284089626053
15.512585430905151,-0.48939149596394865
15.522587097849643,-0.48022015843338517
15.532588764794133,-0.4806511724859753
15.542590431738624,-0.37765737148264233
15.552592098683114,-0.5316806575412785
15.562593765627605,-0.45357543353929297
15.572595432572095,-0.5371602288684626
15.582597099516587,-0.5210315416977663
15.592598766461077,-0.5003689692554177
15.602600433405568,-0.5780635558698106
15.61260210035006,-0.42939902382837536
15.62260376729455,-0.5149304944844304
15.632605434239041,-0.5081511421289969
15.64260710118353,-0.49888426828577453
15.652608768128022,-0.528649091288497
15.662610435072512,-0.41502568865212447
15.672612102017004,-0.49938565506059374
15.682613768961494,-0.4576591409835395
15.692615435905985,-0.4824010254234293
15.702617102850475,-0.5452790259054194
15.712618769794966,-0.37867121585788865
15.722620436739458,-0.48105878812144026
15.732622103683948,-0.48108043541098977
15.74262377062844,-0.5567570807681563
15.752625437572929,-0.4482088642334063
15.76262710451742,-0.59871421498484
15.77262877146191,-0.46778518445379214
15.782630438406402,-0.48495981716338743
15.792632105350892,-0.37487655339968023
15.802633772295383,-0.5206714311708216
15.812635439239873,-0.5162265312030888
15.822637106184365,-0.4717930802241263
15.832638773128856,-0.3830189984303115
15.842640440073346,-0.4108361210020902
15.852642107017838,-0.47073329155808263
15.862643773962327,-0.44623043813330326
15.872645440906819,-0.4084122774065027
15.882647107851309,-0.5029164941898153
15.8926487747958,-0.619660466142793
15.90265044174029,-0.4869011367578252
15.912652108684782,-0.4571159029318724
15.922653775629271,-0.585828444519252
15.932655442573763,-0.4725380259094568
15.942657109518253,-0.46134108642872634
15.952658776462744,-0.48516827783519006
15.962660443407236,-0.3169742447565088
15.972662110351726,-0.46490400817797495
15.982663777296217,-0.3746873018162692
15.992665444240707,-0.44495682177042184
16.002667111185197,-0.5170112970156313
16.01266877812969,-0.38536330605998115
16.02267044507418,-0.39843800152534015
16.03267211201867,-0.5120855774371794
16.04267377896316,-0.393686034074355
16.052675445907653,-0.4964034941428921
16.062677112852143,-0.44675072636908486
16.072678779796632,-0.4401896166187379
16.082680446741126,-0.512613027937976
16.092682113685616,-0.4835634652477924
16.102683780630105,-0.5171430328161445
16.112685447574595,-0.443556567332573
16.12268711451909,-0.47294448601738004
16.132688781463578,-0.5075623359838101
16.142690448408068,-0.4871292148936445
16.152692115352558,-0.45684334496729184
16.16269378229705,-0.4580723903747755
16.17269544924154,-0.3777240689381583
16.18269711618603,-0.4565261452214698
16.192698783130524,-0.49102938487548886
16.202700450075014,-0.4880508274587201
16.212702117019504,-0.4508225068268054
16.222703783963993,-0.359299928745204
16.232705450908487,-0.40427534067790544
16.242707117852976,-0.4846547091240792
16.252708784797466,-0.38122213582665043
16.262710451741956,-0.6213489153936809
16.27271211868645,0.05155931227227115
16.28271378563094,1.0688295476656327
16.29271545257543,-0.8587807439547838
16.302717119519922,-0.5026632565447554
16.312718786464412,-0.41806463798955223
16.322720453408902,-0.47583041730275616
16.33272212035339,-0.3909268714935751
16.342723787297885,-0.45397976823133385
16.352725454242375,-0.46815758585055767
16.362727121186865,-0.48618091067259894
16.372728788131354,-0.38306496541930374
16.382730455075848,-0.4709398243529117
16.392732122020337,-0.461672154434552
16.402733788964827,-0.47292667362218166
16.41273545590932,-0.4175045926655455
16.42273712285381,-0.46178455005494873
16.4327387897983,-0.48697492474377363
16.44274045674279,-0.47433555621161394
16.452742123687283,-0.4741135842248317
16.462743790631773,-0.4503438989053685
16.472745457576263,-0.47974828742245035
16.482747124520753,-0.4543211586635415
16.492748791465246,-0.4945186646906951
16.502750458409736,-0.41332995050093224
16.512752125354226,-0.3613751404415403
16.522753792298715,-0.41073842893483314
16.53275545924321,-0.5160392063406811
16.5427571261877,-0.44562889310095233
16.55275879313219,-0.3701549661033771
16.56276046007668,-0.43730154941090005
16.57276212702117,-0.49237946426228063
16.58276379396566,-0.47916298559437787
16.59276546091015,-0.3911881974679963
16.602767127854644,-0.3814745693487718
16.612768794799134,-0.4674489859450421
16.622770461743624,-0.34659100916084984
16.632772128688114,-0.4058860464796361
16.642773795632607,-0.41606054075672777
16.652775462577097,-0.39065617861810864
16.662777129521587,-0.4895658659906852
16.67277879646608,-0.4895501986657273
16.68278046341057,-0.39991488214589843
16.69278213035506,-0.38665815374810253
16.70278379729955,-0.3892595894829445
16.712785464244043,-0.4177589274498591
16.722787131188532,-0.41863740620320194
16.732788798133022,-0.462935239167498
16.742790465077512,-0.4319455453239965
16.752792132022005,-0.48557749181374554
16.762793798966495,-0.431665679879169
16.772795465910985,-0.41159595826241757
16.782797132855478,-0.40994832461927033
16.792798799799968,-0.45085294111821456
16.802800466744458,-0.46936086294284235
16.812802133688947,-0.39005412117517924
16.82280380063344,-0.3614289988588705
16.83280546757793,-0.34715257537331207
16.84280713452242,-0.4775167370824084
16.85280880146691,-0.36402942423881474
16.862810468411404,-0.4582518318763665
16.872812135355893,-0.34264042967660546
16.882813802300383,-0.4101129611545406
16.892815469244876,-0.44779595416340673
16.902817136189366,-0.37668875177233146
16.912818803133856,-0.41447817142232407
16.922820470078346,-0.4298191144607521
16.93282213702284,-0.4586983846053011
16.94282380396733,-0.4153681194588235
16.95282547091182,-0.44156373757062445
16.96282713785631,-0.393317206978437
16.972828804800802,-0.3939870815001699
16.98283047174529,-0.3929799997413083
16.99283213868978,-0.42158702177733015
17.002833805634275,-0.5087453573977262
17.012835472578764,-0.39935055039547274
17.022837139523254,-0.3325501573583317
17.032838806467744,-0.37919764999720285
17.042840473412237,-0.3338327829743691
17.052842140356727,-0.45094034910731107
17.062843807301217,-0.4546208511123833
17.072845474245707,-0.2965087238697897
17.0828471411902,-0.39726608641601924
17.09284880813469,-0.4084142860458618
17.10285047507918,-0.3792908317523627
17.112852142023673,-0.44825972972781336
17.122853808968163,-0.5615090232985505
17.132855475912653,0.08733481522843425
17.142857142857142,1.0010772623664392
17.152858809801636,-0.8117598000555137
17.162860476746125,-0.5725803829273262
17.172862143690615,-0.4021112544674643
17.182863810635105,-0.35139137311772467
17.1928654775796,-0.32756346773621464
17.202867144524088,-0.32080980355789956
17.212868811468578,-0.38706849594337345
17.222870478413068,-0.3528220410459424
17.23287214535756,-0.3786170199045838
17.24287381230205,-0.4329688816724455
17.25287547924654,-0.347365592911032
17.262877146191034,-0.29257731882542753
17.272878813135524,-0.33267705175293577
17.282880480080014,-0.3894759962944417
17.292882147024503,-0.4195142547330556
17.302883813968997,-0.34500313811009775
17.312885480913486,-0.48597391088824804
17.322887147857976,-0.35331994501144337
17.332888814802466,-0.40233823871511276
17.34289048174696,-0.295412588556299
17.35289214869145,-0.37068561022831237
17.36289381563594,-0.30364568690337757
17.372895482580432,-0.26843951404868627
17.382897149524922,-0.4330240171540071
17.392898816469412,-0.37768506574335836
17.4029004834139,-0.2658483224578095
17.412902150358395,-0.3618001247980025
17.422903817302885,-0.32609221258426246
17.432905484247375,-0.3703124352545124
17.442907151191864,-0.37604702237429544
17.452908818136358,-0.35639398045593085
17.462910485080847,-0.3643762299623593
17.472912152025337,-0.4109118222377955
17.48291381896983,-0.3141815168859339
17.49291548591432,-0.27267593741753327
17.50291715285881,-0.36593844271399617
17.5129188198033,-0.3278921002517643
17.522920486747793,-0.40611409216100003
17.532922153692283,-0.3143600223305387
17.542923820636773,-0.25048558504232366
17.552925487581263,-0.327433291613269
17.562927154525756,-0.2794601742026603
17.572928821470246,-0.3106538123411146
17.582930488414735,-0.3906557255576778
17.59293215535923,-0.3199091173988
17.60293382230372,-0.3542977285764168
17.61293548924821,-0.3657619115016247
17.622937156192698,-0.25421730537531895
17.63293882313719,-0.38679516969773176
17.64294049008168,-0.334979017916243
17.65294215702617,-0.3361288282851895
17.66294382397066,-0.37389513372962496
17.672945490915154,-0.2605954970333917
17.682947157859644,-0.353492645647444
17.692948824804134,-0.2412820692187009
17.702950491748627,-0.33720410243905485
17.712952158693117,-0.29069961696777297
17.722953825637607,-0.2441468892148036
17.732955492582096,-0.33489478197382677
17.74295715952659,-0.2880035733695272
17.75295882647108,-0.3738515451589239
17.76296049341557,-0.3385319072862543
17.77296216036006,-0.43972445322207326
17.782963827304552,-0.36095978152225044
17.792965494249042,-0.33566274716943817
17.802967161193532,-0.337729967979553
17.812968828138025,-0.36482628617138657
17.822970495082515,-0.2062251678741172
17.832972162027005,-0.3495999495086313
17.842973828971495,-0.3262254228203769
17.852975495915988,-0.3297945174191113
17.862977162860478,-0.3334477302951524
17.872978829804968,-0.31152679486837664
17.882980496749457,-0.3396244006478464
17.89298216369395,-0.25238564104976247
17.90298383063844,-0.2217376741960883
17.91298549758293,-0.25487809690877183
17.92298716452742,-0.29419094919347527
17.932988831471913,-0.24474701895851522
17.942990498416403,-0.3002614555205878
17.952992165360893,-0.38003172585842204
17.962993832305386,-0.23457886588396254
17.972995499249876,-0.5529599039711698
17.982997166194366,0.16754681005168312
17.992998833138856,1.2504201168539901
18.00300050008335,-0.7292108115876741
18.01300216702784,-0.37897568053331787
18.02300383397233,-0.3144700972774019
18.03300550091682,-0.25010674529775256
18.04300716786131,-0.3030974484328679
18.0530088348058,-0.34842474457744876
18.06301050175029,-0.2096884911135152
18.073012168694785,-0.41753318439901477
18.083013835639274,-0.34771079894558327
18.093015502583764,-0.2862758929684068
18.103017169528254,-0.2958099693226827
18.113018836472747,-0.3098054822656699
18.123020503417237,-0.3131246838243058
18.133022170361727,-0.3079926559974046
18.143023837306217,-0.15774030387306848
18.15302550425071,-0.37272874645158244
18.1630271711952,-0.26728357153645194
18.17302883813969,-0.21350882214758085
18.183030505084183,-0.2663918689970124
18.193032172028673,-0.24920094044600272
18.203033838973163,-0.352433682280359
18.213035505917652,-0.3208493132779628
18.223037172862146,-0.2751273376933306
18.233038839806635,-0.20686056355196003
18.243040506751125,-0.30437918738483916
18.253042173695615,-0.23510665991539312
18.26304384064011,-0.27791201824233175
18.273045507584598,-0.2371144333388119
18.283047174529088,-0.35211783416637416
18.29304884147358,-0.1624481834254521
18.30305050841807,-0.24327669994130466
18.31305217536256,-0.34107899463199626
18.32305384230705,-0.3116774134921598
18.333055509251544,-0.22677799778551433
18.343057176196034,-0.23612637750288665
18.353058843140523,-0.22430689435714485
18.363060510085013,-0.2764494953716982
18.373062177029507,-0.3150690556767703
18.383063843973996,-0.256094270760807
18.393065510918486,-0.33430841244734555
18.40306717786298,-0.28119971003327393
18.41306884480747,-0.2386378588504333
18.42307051175196,-0.2259677998379041
18.43307217869645,-0.18504921971507193
18.443073845640942,-0.24235386944454818
18.453075512585432,-0.21504081716492915
18.463077179529922,-0.12454604723321427
18.47307884647441,-0.14883136009189607
18.483080513418905,-0.27538479546288386
18.493082180363395,-0.2529040914158456
18.503083847307884,-0.247337416512331
18.513085514252378,-0.2346167361040952
18.523087181196868,-0.28791926369457377
18.533088848141357,-0.14803381868251597
18.543090515085847,-0.20345120082148271
18.55309218203034,-0.2693760077477413
18.56309384897483,-0.24422922325487798
18.57309551591932,-0.14643954945673868
18.58309718286381,-0.21334559851412438
18.593098849808303,-0.23587319706044615
18.603100516752793,-0.27060490794604
18.613102183697283,-0.28243977193790115
18.623103850641776,-0.1999954385722182
18.633105517586266,-0.18539289930242087
18.643107184530756,-0.14640707904314046
18.653108851475245,-0.2140414030338591
18.66311051841974,-0.12167653969547153
18.67311218536423,-0.2785213185391772
18.68311385230872,-0.20370717193523943
18.693115519253208,-0.2336367496074407
18.7031171861977,-0.27641738601265564
18.71311885314219,-0.12491108337604641
18.72312052008668,-0.20263223426460503
18.73312218703117,-0.2466941932803265
18.743123853975664,-0.1548203377087769
18.753125520920154,-0.18515073013045238
18.763127187864644,-0.3033046873363715
18.773128854809137,-0.20825369731923074
18.783130521753627,-0.195659984699826
18.793132188698117,-0.1435624644416732
18.803133855642606,-0.04043601561165097
18.8131355225871,-0.16427986601226288
18.82313718953159,-0.1353581031278835
18.83313885647608,-0.3853349757820699
18.84314052342057,0.4138915808471955
18.853142190365062,1.2693875238085437
18.863143857309552,-0.5191788495990967
18.873145524254042,-0.36527679429142684
18.883147191198535,-0.1742231118594592
18.893148858143025,-0.19116526084362895
18.903150525087515,-0.1551504753356206
18.913152192032005,-0.13093185320660783
18.923153858976498,-0.1866107728067662
18.933155525920988,-0.1860017760547112
18.943157192865478,-0.19861976529452038
18.953158859809967,-0.17095856055887831
18.96316052675446,-0.16156207219945656
18.97316219369895,-0.12378368454315064
18.98316386064344,-0.15433360813262748
18.993165527587934,-0.24148232880785747
19.003167194532423,-0.2018417272141059
19.013168861476913,-0.09246283402720012
19.023170528421403,-0.13948502534979826
19.033172195365896,-0.20067007232224549
19.043173862310386,-0.14279018507458835
19.053175529254876,-0.17529638216148574
19.063177196199366,-0.10841818123115374
19.07317886314386,-0.11819624434855608
19.08318053008835,-0.13520518583416827
19.09318219703284,-0.13782929422817614
19.103183863977332,-0.09125134526848819
19.11318553092182,-0.19239472690393167
19.12318719786631,-0.14205045299082822
19.1331888648108,-0.10471747304457613
19.143190531755295,-0.1620658660454348
19.153192198699784,-0.11874835076588551
19.163193865644274,-0.11927696846171161
19.173195532588764,-0.12945829642975268
19.183197199533257,-0.19090482955011456
19.193198866477747,-0.06791820875132584
19.203200533422237,-0.1922995992552422
19.21320220036673,-0.045924278115888034
19.22320386731122,-0.10511556916423483
19.23320553425571,-0.2099146115285197
19.2432072012002,-0.09958007582883122
19.253208868144693,-0.05487540878948545
19.263210535089183,-0.07311757084971143
19.273212202033672,-0.20216303829266985
19.283213868978162,-0.0798917577092789
19.293215535922656,-0.20788224293281235
19.303217202867145,-0.03163914141623762
19.313218869811635,-0.1532587031127475
19.32322053675613,-0.08380289883484648
19.33322220370062,-0.16055508322686174
19.343223870645108,-0.19532909879973825
19.353225537589598,-0.03250227033007651
19.36322720453409,-0.0529958248032024
19.37322887147858,-0.16034517617269575
19.38323053842307,-0.04919746979247938
19.39323220536756,9.514059170703804e-05
19.403233872312054,-0.07353102029787836
19.413235539256544,-0.0654654226895035
19.423237206201033,-0.09078278653057617
19.433238873145523,-0.06205607350723501
19.443240540090017,-0.06982976880664121
19.453242207034506,-0.07611053625477338
19.463243873978996,-0.08629774711210106
19.47324554092349,-0.21382960008730306
19.48324720786798,-0.04301760137074365
19.49324887481247,-0.09815190010598969
19.50325054175696,-0.02748298351843733
19.513252208701452,-0.085040492005197
19.523253875645942,-0.10953510860900867
19.53325554259043,-0.12815687253510424
19.54325720953492,-0.049086141512325765
19.553258876479415,-0.015667196463252903
19.563260543423905,-0.10253771614651024
19.573262210368394,-0.04297107460988707
19.583263877312888,-0.15316897554275918
19.593265544257378,-0.03848086043224713
19.603267211201867,-0.14946585620109193
19.613268878146357,-0.013062745373619837
19.62327054509085,-0.04820033109437262
19.63327221203534,-0.10520217254991934
19.64327387897983,-0.023861111225963356
19.65327554592432,0.014578334800602173
19.663277212868813,-0.16785344861610424
19.673278879813303,-0.07682893597749442
19.683280546757793,-0.1305432774168731
19.693282213702286,-0.18020311010737589
19.703283880646776,0.34138662817469195
19.713285547591266,1.4129300691876083
19.723287214535755,-0.450867531988425
19.73328888148025,-0.15295047817460303
19.74329054842474,-0.008911269446147403
19.75329221536923,-0.08941572682150915
19.763293882313718,-0.001973745624967653
19.77329554925821,-0.08222687018719346
19.7832972162027,0.010040962496787258
19.79329888314719,-0.06220273002874678
19.803300550091684,0.06070154154780283
19.813302217036174,-0.03147069423753704
19.823303883980664,-0.023643102201400378
19.833305550925154,-0.04201797039233392
19.843307217869647,-0.033062667923589334
19.853308884814137,-0.0515616246321197
19.863310551758627,-0.03526245578910624
19.873312218703116,0.006655204059236936
19.88331388564761,0.11987480414375544
19.8933155525921,-0.03260839428019842
19.90331721953659,-0.033512308817628046
19.913318886481083,-0.0758973772806659
19.923320553425572,-0.02784376637361815
19.933322220370062,-0.05715760141393374
19.943323887314552,-0.015899429401987825
19.953325554259045,0.06029347861412538
19.963327221203535,-0.01823645615052672
19.973328888148025,-0.013416511370332493
19.983330555092515,-0.03422051118576696
19.993332222037008,-0.043645994678690646
20.003333888981498,-0.024049452224506582
20.013335555925988,-0.004049516990026519
20.02333722287048,0.07806044136144055
20.03333888981497,0.01713142912740897
20.04334055675946,0.051473792706148845
20.05334222370395,0.036550939901498505
20.063343890648444,-0.07366121075563417
20.073345557592933,0.02067651627284306
20.083347224537423,0.05932107158231374
20.093348891481913,-0.04704214049570223
20.103350558426406,0.04129425272786011
20.113352225370896,0.008085766410551674
20.123353892315386,0.08751152199017978
20.133355559259876,0.008223894772997517
20.14335722620437,-0.049704482126248124
20.15335889314886,0.010004037761459236
20.16336056009335,-0.006448296693685362
20.173362227037842,-0.043152410841360095
20.18336389398233,-0.02103463462408058
20.19336556092682,0.08504357072577612
20.20336722787131,-0.06707019189398183
20.213368894815805,0.007261983832295402
20.223370561760294,0.030845051990778596
20.233372228704784,0.0400092784713532
20.243373895649274,0.05806721277260311
20.253375562593767,-0.07495980030736321
20.263377229538257,0.06671239532782153
20.273378896482747,0.039398839986831274
20.28338056342724,0.022964319594700428
20.29338223037173,0.11894559157715243
20.30338389731622,0.04089957043187766
20.31338556426071,0.03303527075660573
20.323387231205203,0.05480343696954057
20.333388898149693,-0.004987182079732692
20.343390565094182,0.1044819542676231
20.353392232038672,0.013492240689427622
20.363393898983166,0.09705926325186481
20.373395565927655,0.07565051865120725
20.383397232872145,-0.06360160484605727
20.39339889981664,0.08930284178355222
20.40340056676113,0.0597584839836116
20.413402233705618,0.10552124117529968
20.423403900650108,0.09115359029053953
20.4334055675946,0.09831660176596087
20.44340723453909,0.09947489960040891
20.45340890148358,0.11879862997603066
20.46341056842807,0.08166349247544853
20.473412235372564,0.06569704058470818
20.483413902317054,0.07357401109323689
20.493415569261543,0.022788577737293043
20.503417236206037,0.1016622702914368
20.513418903150527,0.07432825501379878
20.523420570095016,0.09295698720116663
20.533422237039506,0.040700335640507325
20.543423903984,0.06933541858502612
20.55342557092849,-0.09970636283700944
20.56342723787298,0.6271059611915015
20.57342890481747,1.607982585427138
20.583430571761962,-0.3053830452586843
20.593432238706452,0.061157158309485204
20.60343390565094,0.08936815843914447
20.613435572595435,0.08459334126924599
20.623437239539925,0.24746844692123948
20.633438906484415,0.15675180147987783
20.643440573428904,0.13341675781264073
20.653442240373398,0.06306770656739967
20.663443907317887,0.10287348174424328
20.673445574262377,0.11563848143751461
20.683447241206867,0.040797421615492324
20.69344890815136,0.09287013990385314
20.70345057509585,0.0762043283120174
20.71345224204034,0.015412552575783237
20.723453908984833,0.13262051753652254
20.733455575929323,0.1305432682133208
20.743457242873813,0.09232402215325294
20.753458909818303,0.14183949959622938
20.763460576762796,0.009887696427075474
20.773462243707286,0.16523593312490714
20.783463910651776,0.12089172833377003
20.793465577596265,0.18413693709286427
20.80346724454076,0.09569455577677324
20.81346891148525,0.059958207312003894
20.82347057842974,0.06501800549548829
20.83347224537423,0.1320899776674326
20.84347391231872,0.16590179804589683
20.85347557926321,0.14317216549810158
20.8634772462077,0.12742533795367603
20.873478913152194,0.08896656757439592
20.883480580096684,0.08801075673290998
20.893482247041174,0.11449500304206829
20.903483913985664,0.08664872615914526
20.913485580930157,0.1301416718461017
20.923487247874647,0.1580003374305732
20.933488914819137,0.20292532164278276
20.943490581763626,0.08411984192402899
20.95349224870812,0.19898581936772805
20.96349391565261,0.20154386466760993
20.9734955825971,0.20927340312509424
20.983497249541593,0.09231126911607858
20.993498916486082,0.17676346598958895
21.003500583430572,0.12972484705707768
21.013502250375062,0.11513374302092064
21.023503917319555,0.1792892273793421
21.033505584264045,0.19406630065469166
21.043507251208535,0.16035124129486342
21.053508918153025,0.15486945579806277
21.063510585097518,0.18944373509838244
21.073512252042008,0.11675490120590665
21.083513918986498,0.21587690708882282
21.09351558593099,0.16699508745993857
21.10351725287548,0.23742512992073356
21.11351891981997,0.12898161242185177
21.12352058676446,0.26341881314674565
21.133522253708954,0.20313511005833224
21.143523920653443,0.1254266437375138
21.153525587597933,0.22980427239282875
21.163527254542423,0.2047577012115435
21.173528921486916,0.15042431212983998
21.183530588431406,0.25376590934389515
21.193532255375896,0.13440740288734837
21.20353392232039,0.14310343366532063
21.21353558926488,0.3025831484281332
21.22353725620937,0.16851097527069622
21.23353892315386,0.21663523003224844
21.243540590098352,0.26942045745948456
21.25354225704284,0.1996586678643689
21.26354392398733,0.16754917630171778
21.27354559093182,0.24322137256875476
21.283547257876315,0.21480409882311827
21.293548924820804,0.26963464106516466
21.303550591765294,0.18825827880074827
21.313552258709787,0.09570846390325313
21.323553925654277,0.09915555911100463
21.333555592598767,0.15266287136586731
21.343557259543257,0.12481342246372218
21.35355892648775,0.2549901216836844
21.36356059343224,0.24240997103439874
21.37356226037673,0.2294960328570296
21.38356392732122,0.32382625653498065
21.393565594265713,0.16893460028188467
21.403567261210203,0.11474691370232892
21.413568928154692,0.7173785150458576
21.423570595099186,1.7179915118003608
21.433572262043675,-0.22971052897079772
21.443573928988165,0.11763184011176976
21.453575595932655,0.24495157087812852
21.46357726287715,0.20643287776536806
21.473578929821638,0.22883147172016327
21.483580596766128,0.32386932319663353
21.493582263710618,0.232900160602515
21.50358393065511,0.30788514578853854
21.5135855975996,0.2381057597548193
21.52358726454409,0.23602453351776423
21.533588931488584,0.19723689290368698
21.543590598433074,0.3027264065732225
21.553592265377564,0.17646037912564388
21.563593932322053,0.1935676315351073
21.573595599266547,0.23598652368188022
21.583597266211036,0.24080055213940568
21.593598933155526,0.21919083448918297
21.603600600100016,0.30282920600068675
21.61360226704451,0.21052926306671393
21.623603933989,0.3331700598462856
21.63360560093349,0.2775994254972147
21.64360726787798,0.23780734051064842
21.653608934822472,0.17280813915833265
21.663610601766962,0.261642622604154
21.67361226871145,0.2530203563519637
21.683613935655945,0.2094948219149237
21.693615602600435,0.20707638305244055
21.703617269544925,0.2514280159608129
21.713618936489414,0.21431684187156916
21.723620603433908,0.23631317283330971
21.733622270378397,0.21742591761612517
21.743623937322887,0.2680258840405402
21.753625604267377,0.2816508752156763
21.76362727121187,0.32266828060360647
21.77362893815636,0.18810702994294706
21.78363060510085,0.23709388218636962
21.793632272045343,0.2229840241948426
21.803633938989833,0.275560575864704
21.813635605934323,0.21137268337828186
21.823637272878813,0.3793991170000929
21.833638939823306,0.31799608024506
21.843640606767796,0.2631326721184977
21.853642273712286,0.24104797186884352
21.863643940656775,0.19399329678915395
21.87364560760127,0.23015706486568838
21.88364727454576,0.1542262520151661
21.893648941490248,0.2805157987421538
21.90365060843474,0.3405052211850315
21.91365227537923,0.30296653522110206
21.92365394232372,0.32175269621125746
21.93365560926821,0.24627754240319547
21.943657276212704,0.2716885363223629
21.953658943157194,0.31612367572045497
21.963660610101684,0.2754047298438518
21.973662277046174,0.22726341667897537
21.983663943990667,0.3242846788750715
21.993665610935157,0.31628630003403124
22.003667277879646,0.3079819951437275
22.01366894482414,0.30443296231548167
22.02367061176863,0.21542701127644326
22.03367227871312,0.39129231730962555
22.04367394565761,0.25302792430126736
22.053675612602103,0.35189592455940305
22.063677279546592,0.3783750935039029
22.073678946491082,0.36544059643802607
22.083680613435572,0.2614360931196532
22.093682280380065,0.3045795146112662
22.103683947324555,0.3142711547099562
22.113685614269045,0.2944862237834881
22.123687281213538,0.377306799632999
22.133688948158028,0.2798512555671542
22.143690615102518,0.36917641780239663
22.153692282047007,0.3782075169104762
22.1636939489915,0.34292755022503874
22.17369561593599,0.24483980102478753
22.18369728288048,0.3058310790709027
22.19369894982497,0.20139396162452364
22.203700616769463,0.3595571925552856
22.213702283713953,0.31889099375238217
22.223703950658443,0.3222316654539907
22.233705617602936,0.36641474023163934
22.243707284547426,0.3405456934606482
22.253708951491916,0.3575551309902328
22.263710618436406,0.14821357506456614
22.2737122853809,0.7940701305717619
22.28371395232539,1.7940932912434695
22.29371561926988,0.0031449219185284844
22.30371728621437,0.24465394735085033
22.313718953158862,0.2659060826149829
22.32372062010335,0.2936590700877704
22.33372228704784,0.3122724827857759
22.34372395399233,0.30633132095806676
22.353725620936824,0.39698918377176906
22.363727287881314,0.3385046856882962
22.373728954825804,0.3213524182932775
22.383730621770297,0.32995663485184645
22.393732288714787,0.40398779673070506
22.403733955659277,0.3288698625328006
22.413735622603767,0.3000449712697892
22.42373728954826,0.2933076360237894
22.43373895649275,0.33766199043854117
22.44374062343724,0.3653874889194325
22.45374229038173,0.3729352434321929
22.463743957326223,0.30807650548761206
22.473745624270713,0.3649815516356156
22.483747291215202,0.33797545338894835
22.493748958159696,0.35094109797977446
22.503750625104185,0.31215529023619426
22.513752292048675,0.3269043037321577
22.523753958993165,0.3501363843869375
22.53375562593766,0.337233929930568
22.543757292882148,0.36580453755789605
22.553758959826638,0.2628571154044729
22.563760626771128,0.34904362808236006
22.57376229371562,0.32859550674046933
22.58376396066011,0.4491034047680599
22.5937656276046,0.3255031148912243
22.603767294549094,0.41076313028706746
22.613768961493584,0.375550573682206
22.623770628438074,0.29713830805701247
22.633772295382563,0.42080555332815306
22.643773962327057,0.35315640585296026
22.653775629271546,0.3875472868824725
22.663777296216036,0.35691237219957145
22.673778963160526,0.3902947227312503
22.68378063010502,0.35258686145701057
22.69378229704951,0.3308104829833325
22.703783963994,0.41396118405974824
22.713785630938492,0.4049386656010631
22.723787297882982,0.3053970365139409
22.733788964827472,0.37089099335473136
22.74379063177196,0.4103159624678064
22.753792298716455,0.3507045148595035
22.763793965660945,0.3556394125389747
22.773795632605434,0.4213743671416161
22.783797299549924,0.3939036946943785
22.793798966494418,0.49544148343116395
22.803800633438907,0.4004261278493331
22.813802300383397,0.3752345311042593
22.82380396732789,0.3893143474910713
22.83380563427238,0.3145941097268613
22.84380730121687,0.39194321958205
22.85380896816136,0.4419734546060765
22.863810635105853,0.35630392558073454
22.873812302050343,0.49244524947132
22.883813968994833,0.43153065103596494
22.893815635939323,0.41151272097128977
22.903817302883816,0.5460126454954336
22.913818969828306,0.4235818071945374
22.923820636772795,0.42586982674482465
22.93382230371729,0.38008849962293767
22.94382397066178,0.36343202007466274
22.95382563760627,0.38076302054923467
22.963827304550758,0.3482070468684709
22.97382897149525,0.4057143572486729
22.98383063843974,0.346979787543499
22.99383230538423,0.4440910994217969
23.00383397232872,0.38544560798949495
23.013835639273214,0.44067396466229536
23.023837306217704,0.41477563670602957
23.033838973162194,0.33641037466417134
23.043840640106687,0.3985420855333397
23.053842307051177,0.4293887039886746
23.063843973995667,0.4630565251666888
23.073845640940156,0.3468418166586107
23.08384730788465,0.3726574310100111
23.09384897482914,0.4612372894837623
23.10385064177363,0.46189663287564353
23.11385230871812,0.3929628998610324
23.123853975662612,0.2075656430079328
23.133855642607102,0.9903998309280206
23.143857309551592,1.8597090318283012
23.153858976496082,0.0026103631678272322
23.163860643440575,0.35256601278899213
23.173862310385065,0.4540850381042235
23.183863977329555,0.42782050257961574
23.193865644274048,0.3901357261952193
23.203867311218538,0.45747839465236934
23.213868978163028,0.4117200094612674
23.223870645107517,0.4154187520858765
23.23387231205201,0.48660031523373887
23.2438739789965,0.41641278822885724
23.25387564594099,0.5113733923795962
23.26387731288548,0.35409834247463495
23.273878979829973,0.43541809797346237
23.283880646774463,0.41792394427119917
23.293882313718953,0.4788977184505367
23.303883980663446,0.4751724227250687
23.313885647607936,0.42797103889891375
23.323887314552426,0.4695200704426394
23.333888981496916,0.4738981970181288
23.34389064844141,0.36624602200278483
23.3538923153859,0.42953020763960587
23.36389398233039,0.39940787421302926
23.37389564927488,0.39811833919738915
23.38389731621937,0.46681548954511176
23.39389898316386,0.43724245370023895
23.40390065010835,0.47681991279112623
23.413902317052845,0.3750961516983468
23.423903983997334,0.4724987502917555
23.433905650941824,0.45057969893313665
23.443907317886314,0.43658181809927893
23.453908984830807,0.44448940306410195
23.463910651775297,0.44233175085083903
23.473912318719787,0.47052672400208373
23.483913985664277,0.38261568710438343
23.49391565260877,0.4581709566410844
23.50391731955326,0.5075696820474486
23.51391898649775,0.48034460539607465
23.523920653442243,0.4339018446029235
23.533922320386733,0.4080714585776627
23.543923987331222,0.4703068098371301
23.553925654275712,0.46050451758051514
23.563927321220206,0.3394636694101668
23.573928988164695,0.4160619399123316
23.583930655109185,0.3756409094038604
23.593932322053675,0.44655379887274044
23.60393398899817,0.4223677697791286
23.613935655942658,0.5378122586051717
23.623937322887148,0.5280072128191251
23.63393898983164,0.4396756528967431
23.64394065677613,0.3701657404072522
23.65394232372062,0.39185428209214
23.66394399066511,0.4884464967200547
23.673945657609604,0.456518973731902
23.683947324554094,0.440648261877202
23.693948991498583,0.5006510767607305
23.703950658443073,0.48125585821032946
23.713952325387567,0.4805812543503582
23.723953992332056,0.540022032402983
23.733955659276546,0.46791150082510913
23.74395732622104,0.41339765652673455
23.75395899316553,0.45078447801842925
23.76396066011002,0.5134157649185915
23.77396232705451,0.42821987430199576
23.783963993999002,0.5916747812150476
23.793965660943492,0.5067742358092459
23.80396732788798,0.46778204358156444
23.81396899483247,0.45166991271326007
23.823970661776965,0.4211201988417239
23.833972328721455,0.47072055352481523
23.843973995665944,0.45745782190049233
23.853975662610434,0.42471029848453007
23.863977329554928,0.38611470426624994
23.873978996499417,0.5725226574756969
23.883980663443907,0.4610988482134973
23.8939823303884,0.5163332295882819
23.90398399733289,0.3848600622045376
23.91398566427738,0.5292262841805461
23.92398733122187,0.38916761412167
23.933988998166363,0.4697368042125011
23.943990665110853,0.40213742189224866
23.953992332055343,0.5080400666258529
23.963993998999833,0.5862443375166627
23.973995665944326,0.31497987993258936
23.983997332888816,0.948208885594539
23.993998999833305,1.9691298483307282
24.0040006667778,0.07199691148969749
24.01400233372229,0.4133273393162834
24.02400400066678,0.5132906565875769
24.034005667611268,0.42262681329154306
24.04400733455576,0.5239986869430397
24.05400900150025,0.44750828735596027
24.06401066844474,0.48432605893475633
24.07401233538923,0.4731991068978242
24.084014002333724,0.3905695900360566
24.094015669278214,0.4805662994399624
24.104017336222704,0.4558841028252073
24.114019003167197,0.598104081178265
24.124020670111687,0.4513294420569849
24.134022337056177,0.5715551513998396
24.144024004000666,0.6023693534822213
24.15402567094516,0.4808026166175175
24.16402733788965,0.5198987050664077
24.17402900483414,0.564526322420731
24.18403067177863,0.5198915591003838
24.194032338723122,0.42271549898262256
24.204034005667612,0.44269588495898277
24.214035672612102,0.5457383341308002
24.224037339556595,0.5252456509772115
24.234039006501085,0.4900529069038904
24.244040673445575,0.4594930266433577
24.254042340390065,0.5828239620801099
24.264044007334558,0.5534869176557717
24.274045674279048,0.43568611806311686
24.284047341223538,0.5096326594911837
24.294049008168027,0.44536162872176255
24.30405067511252,0.4024034391398687
24.31405234205701,0.47729589122706767
24.3240540090015,0.504139180073358
24.334055675945994,0.5539830821341717
24.344057342890483,0.4555038128812424
24.354059009834973,0.5567814823928326
24.364060676779463,0.4741364069368375
24.374062343723956,0.46025650253866085
24.384064010668446,0.5400747576491076
24.394065677612936,0.49598700922039884
24.404067344557426,0.49224261665794444
24.41406901150192,0.38535689672543705
24.42407067844641,0.44697242958422845
24.4340723453909,0.5664498355051335
24.444074012335392,0.47422854596415004
24.45407567927988,0.45793954147564797
24.46407734622437,0.5181893141710778
24.47407901316886,0.5450763560514496
24.484080680113355,0.506727082220056
24.494082347057844,0.5462680771654538
24.504084014002334,0.5496847911431211
24.514085680946824,0.4316576405804324
24.524087347891317,0.440933668646928
24.534089014835807,0.49258526280907045
24.544090681780297,0.5729117122676955
24.554092348724787,0.49162634953263085
24.56409401566928,0.42421299100190124
24.57409568261377,0.5446407723408853
24.58409734955826,0.4478683491300649
24.594099016502753,0.5440666262488949
24.604100683447243,0.5641480856949013
24.614102350391732,0.5310314662202763
24.624104017336222,0.49158676276124746
24.634105684280716,0.5192404228469533
24.644107351225205,0.4432583122529068
24.654109018169695,0.4432293375394787
24.664110685114185,0.4612831287613598
24.67411235205868,0.4992707105787969
24.684114019003168,0.4194197608612541
24.694115685947658,0.5871349242850993
24.70411735289215,0.4903925859263517
24.71411901983664,0.4432583213204987
24.72412068678113,0.470485813999326
24.73412235372562,0.48874678648454734
24.744124020670114,0.4875329719613607
24.754125687614604,0.4723926482096915
24.764127354559093,0.5494034989313106
24.774129021503583,0.5328090999825665
24.784130688448077,0.5866774396652
24.794132355392566,0.5152717418213042
24.804134022337056,0.5364167414572437
24.81413568928155,0.44268943211562073
24.82413735622604,0.4855709688491112
24.83413902317053,0.2951378650510272
24.84414069011502,0.946740775846169
24.854142357059512,1.9046887653367146
24.864144024004002,0.19229330030816416
24.87414569094849,0.3617846062312533
24.88414735789298,0.44315534819653024
24.894149024837475,0.48653603362171144
24.904150691781965,0.46328956676112554
24.914152358726454,0.47466819330897336
24.924154025670948,0.5970538017117538
24.934155692615438,0.4538522284951149
24.944157359559927,0.4162000589426165
24.954159026504417,0.6188189565013189
24.96416069344891,0.4762262460871711
24.9741623603934,0.45747173073396646
24.98416402733789,0.5628443041024395
24.99416569428238,0.4157419236933377
25.004167361226873,0.6453274985097803
25.014169028171363,0.5386091656279096
25.024170695115853,0.6058200671909036
25.034172362060346,0.5258766628445194
25.044174029004836,0.5293926843860686
25.054175695949326,0.5205393983933193
25.064177362893815,0.5024992941824603
25.07417902983831,0.49018659588986235
25.0841806967828,0.6720719256556065
25.09418236372729,0.422731733614345
25.104184030671778,0.5043907299516396
25.11418569761627,0.5112996977113482
25.12418736456076,0.48497485432017434
25.13418903150525,0.5242343904530131
25.144190698449744,0.5669064871560369
25.154192365394234,0.44017822588408534
25.164194032338724,0.5181485735521721
25.174195699283214,0.47916194266964673
25.184197366227707,0.5618930646118715
25.194199033172197,0.4463941116280321
25.204200700116687,0.5400732541004147
25.214202367061176,0.48012664420726864
25.22420403400567,0.4239840331424397
25.23420570095016,0.5114967037896414
25.24420736789465,0.5243850222297698
25.25420903483914,0.5469525206382978
25.264210701783632,0.4632897497303846
25.274212368728122,0.5399646684003628
25.284214035672612,0.5227595732653945
25.294215702617105,0.5131946454408397
25.304217369561595,0.5998737569021778
25.314219036506085,0.5193253477411808
25.324220703450575,0.4431224944331819
25.334222370395068,0.515795442188673
25.344224037339558,0.4694473734132243
25.354225704284048,0.5780188087603495
25.364227371228537,0.4897179623872486
25.37422903817303,0.568112029745744
25.38423070511752,0.498425054156006
25.39423237206201,0.5669395856906196
25.404234039006504,0.5246400250101074
25.414235705950993,0.4844576361618406
25.424237372895483,0.5342504568071794
25.434239039839973,0.4750434348001547
25.444240706784466,0.5774557513696505
25.454242373728956,0.5553282095629088
25.464244040673446,0.5566286558313014
25.474245707617936,0.5673038186448122
25.48424737456243,0.5233054071177032
25.49424904150692,0.4793049958097387
25.50425070845141,0.5268868358536032
25.514252375395902,0.5899959188802919
25.52425404234039,0.43607427235450896
25.53425570928488,0.5160737864956472
25.54425737622937,0.4142027425581803
25.554259043173865,0.4637113428949068
25.564260710118354,0.5047396692520089
25.574262377062844,0.48998928138211084
25.584264044007334,0.565693247154412
25.594265710951827,0.47097143816116943
25.604267377896317,0.4703059327478425
25.614269044840807,0.48662339871077787
25.6242707117853,0.4725625903929219
25.63427237872979,0.40327669522508
25.64427404567428,0.5191473734280964
25.65427571261877,0.5665662000849121
25.664277379563263,0.4879525551120077
25.674279046507753,0.5715424237544974
25.684280713452242,0.465298520271763
25.694282380396732,0.3893406957481704
25.704284047341226,0.9259209402210608
25.714285714285715,2.013422212343984
25.724287381230205,0.10900249050507957
25.7342890481747,0.3607619063217682
25.744290715119188,0.4572169222110292
25.754292382063678,0.486186999472888
25.764294049008168,0.4530521553103446
25.77429571595266,0.5160505451886789
25.78429738289715,0.4582680439775291
25.79429904984164,0.5526370915971285
25.80430071678613,0.4656119585239478
25.814302383730624,0.44227947888062363
25.824304050675114,0.4201928003675341
25.834305717619603,0.49767341906498125
25.844307384564097,0.48477498100370586
25.854309051508586,0.4631894228422643
25.864310718453076,0.5136915433675058
25.874312385397566,0.44884663770242067
25.88431405234206,0.5221457471695359
25.89431571928655,0.4867995082199735
25.90431738623104,0.5651178603178447
25.91431905317553,0.43506814864522514
25.924320720120022,0.48568164893393445
25.934322387064512,0.6273085854005575
25.944324054009,0.4507571930494848
25.954325720953495,0.39383450696762556
25.964327387897985,0.4819366129530396
25.974329054842475,0.5846153258152107
25.984330721786964,0.40863686090395024
25.994332388731458,0.40194734547172123
26.004334055675947,0.40772114603636606
26.014335722620437,0.45941871657990585
26.024337389564927,0.43228202764976814
26.03433905650942,0.5163381795030018
26.04434072345391,0.6112822786995489
26.0543423903984,0.48730495350561576
26.06434405734289,0.5186319556504619
26.074345724287383,0.42692937707636347
26.084347391231873,0.4030910674106311
26.094349058176363,0.4235632506892165
26.104350725120856,0.5466409538746886
26.114352392065346,0.4215526561977821
26.124354059009836,0.5148882138671174
26.134355725954325,0.5249186393197813
26.14435739289882,0.5126652309861159
26.15435905984331,0.46932374450366965
26.1643607267878,0.49916818649460765
26.174362393732288,0.3781915932772295
26.18436406067678,0.5618506367258556
26.19436572762127,0.42085254672133254
26.20436739456576,0.4834754702888404
26.214369061510254,0.44901980195329166
26.224370728454744,0.4657214419807813
26.234372395399234,0.4968074821346222
26.244374062343724,0.49167928345662054
26.254375729288217,0.430109339731322
26.264377396232707,0.5497554944858799
26.274379063177197,0.5115561248919039
26.284380730121686,0.4091510516705886
26.29438239706618,0.5930913961955888
26.30438406401067,0.4215903246865701
26.31438573095516,0.5761493623759284
26.324387397899653,0.514928342946977
26.334389064844142,0.45840020779496593
26.344390731788632,0.5507324656781586
26.354392398733122,0.5010348297237275
26.364394065677615,0.429431142540586
26.374395732622105,0.47746890413924964
26.384397399566595,0.5369609834155249
26.394399066511085,0.38106821490556825
26.404400733455578,0.49552907064228185
26.414402400400068,0.4656075754613498
26.424404067344557,0.4582662510643579
26.43440573428905,0.45902384031508253
26.44440740123354,0.36236971743415824
26.45440906817803,0.5357145720441545
26.46441073512252,0.4373222974384773
26.474412402067014,0.4413839311622088
26.484414069011503,0.46140901448796684
26.494415735955993,0.5169119634341185
26.504417402900483,0.517379647651157
26.514419069844976,0.4488992117128576
26.524420736789466,0.44841139309003136
26.534422403733956,0.4392533470063929
26.54442407067845,0.4388534799440534
26.55442573762294,0.25995493750401993
26.56442740456743,0.9699315426398776
26.57442907151192,2.023665031141832
26.584430738456412,0.10090738513948083
26.5944324054009,0.3055571597126586
26.60443407234539,0.44650799221997783
26.61443573928988,0.40466312779192876
26.624437406234374,0.4703143171690324
26.634439073178864,0.4700025615034007
26.644440740123354,0.39670211903374064
26.654442407067847,0.46336674243551224
26.664444074012337,0.4398291073840206
26.674445740956827,0.41478731124418067
26.684447407901317,0.5062415599514662
26.69444907484581,0.4480543186224862
26.7044507417903,0.41512901080104825
26.71445240873479,0.4001390780580677
26.72445407567928,0.42831352854962185
26.734455742623773,0.4291071070241867
26.744457409568263,0.4474944930012859
26.754459076512752,0.411452723190979
26.764460743457242,0.33137563209151616
26.774462410401735,0.42454078190808003
26.784464077346225,0.3500869832498368
26.794465744290715,0.32446896459582364
26.80446741123521,0.4679296965372948
26.814469078179698,0.4700539677241673
26.824470745124188,0.4650993751707042
26.834472412068678,0.39314099814055503
26.84447407901317,0.3940248951515884
26.85447574595766,0.5122816238594312
26.86447741290215,0.44852583569235227
26.87447907984664,0.44998173875010133
26.884480746791134,0.4006265331198131
26.894482413735624,0.33629757911576297
26.904484080680113,0.4407648363949947
26.914485747624607,0.4216180482451697
26.924487414569096,0.36970582518983064
26.934489081513586,0.4412538112181883
26.944490748458076,0.4396609938245528
26.95449241540257,0.4704531925992817
26.96449408234706,0.4061891371381863
26.97449574929155,0.4514880092321969
26.98449741623604,0.35859380013418346
26.994499083180532,0.3700569604729473
27.004500750125022,0.268590026290924
27.01450241706951,0.45371073233073933
27.024504084014005,0.4012071714051796
27.034505750958495,0.3836026278909458
27.044507417902985,0.45138299971615636
27.054509084847474,0.3908768148610841
27.064510751791968,0.44361145699820204
27.074512418736457,0.39284117625830867
27.084514085680947,0.3497962238324596
27.094515752625437,0.381414225369249
27.10451741956993,0.3238882675781535
27.11451908651442,0.41228749310804647
27.12452075345891,0.42512354515931816
27.134522420403403,0.3951637164055115
27.144524087347893,0.30119500741407046
27.154525754292383,0.3399944052320025
27.164527421236873,0.37442496851917095
27.174529088181366,0.2844557155354217
27.184530755125856,0.3309687660944879
27.194532422070345,0.43102542520399
27.204534089014835,0.37384090872441933
27.21453575595933,0.4185681047174992
27.22453742290382,0.43086806198178956
27.234539089848308,0.3942945362625636
27.2445407567928,0.43207162225651585
27.25454242373729,0.3417571490491275
27.26454409068178,0.34942443116772176
27.27454575762627,0.3911782473460777
27.284547424570764,0.4328013308430875
27.294549091515254,0.3664227323535245
27.304550758459744,0.39258011161985035
27.314552425404234,0.3593385952551655
27.324554092348727,0.4555143375472466
27.334555759293217,0.3388936675674492
27.344557426237706,0.3030736106329832
27.3545590931822,0.4271810398324894
27.36456076012669,0.32422412933367206
27.37456242707118,0.34304055531946215
27.38456409401567,0.40134060207667116
27.394565760960162,0.34895852784097553
27.404567427904652,0.16808798505071365
27.414569094849142,0.887764773175736
27.424570761793632,1.896454528503287
27.434572428738125,-0.05245803401090486
27.444574095682615,0.2467038858446207
27.454575762627105,0.41335604757954203
27.464577429571595,0.4023273409871257
27.474579096516088,0.3820531077222553
27.484580763460578,0.3065274267266596
27.494582430405067,0.39651549458436564
27.50458409734956,0.3642848439579611
27.51458576429405,0.33025959561105284
27.52458743123854,0.3700168346466222
27.53458909818303,0.39325375375628785
27.544590765127523,0.3736121081566632
27.554592432072013,0.35290411398407956
27.564594099016503,0.3855981903228094
27.574595765960993,0.3222659522375826
27.584597432905486,0.2715888887386104
27.594599099849976,0.40798871860603486
27.604600766794466,0.34628864243469654
27.61460243373896,0.32724053738364955
27.62460410068345,0.3337744553117476
27.63460576762794,0.3557371328866836
27.64460743457243,0.3539273794898486
27.65460910151692,0.3190796810425081
27.66461076846141,0.2738858544572795
27.6746124354059,0.31322169059471877
27.68461410235039,0.33655391995059514
27.694615769294884,0.4019957601399887
27.704617436239374,0.24800898629287355
27.714619103183864,0.31383806247450946
27.724620770128357,0.2551530208262805
27.734622437072847,0.33182989206461666
27.744624104017337,0.3084280705822445
27.754625770961827,0.26923649269069244
27.76462743790632,0.3073274226167375
27.77462910485081,0.2638287543482242
27.7846307717953,0.3975031436584917
27.79463243873979,0.3730977913481329
27.804634105684283,0.42770830952921235
27.814635772628773,0.3183514150519765
27.824637439573262,0.34481029878181485
27.834639106517756,0.2739757939394115
27.844640773462245,0.2397271660708607
27.854642440406735,0.17743761922733925
27.864644107351225,0.24119120664519814
27.87464577429572,0.30861916429916286
27.884647441240208,0.3585912634421795
27.894649108184698,0.30804902734291467
27.904650775129188,0.14362297278806668
27.91465244207368,0.26459437967953214
27.92465410901817,0.33839209218767
27.93465577596266,0.2508439575334369
27.944657442907154,0.29371867133113666
27.954659109851644,0.290592628379354
27.964660776796133,0.25527538933001376
27.974662443740623,0.29784638526628604
27.984664110685117,0.19708637640707738
27.994665777629606,0.31965937616361695
28.004667444574096,0.35654787236189034
28.014669111518586,0.3307143742118924
28.02467077846308,0.3367167618709262
28.03467244540757,0.2619267640562159
28.04467411235206,0.18903328180601353
28.054675779296552,0.44076174189268913
28.064677446241042,0.2276234132587653
28.07467911318553,0.35190561517097874
28.08468078013002,0.2978419174193986
28.094682447074515,0.2466842820089144
28.104684114019005,0.251053053212815
28.114685780963494,0.24739528167765237
28.124687447907984,0.23025342805139476
28.134689114852478,0.2557997783239999
28.144690781796967,0.25091756316647007
28.154692448741457,0.3294872245065135
28.164694115685947,0.2957534646942873
28.17469578263044,0.1987463735262307
28.18469744957493,0.3372286771236019
28.19469911651942,0.2687146996021781
28.204700783463913,0.25300394478273824
28.214702450408403,0.2491495999792217
28.224704117352893,0.3345780656790408
28.234705784297383,0.23337389525417393
28.244707451241876,0.2177441478367032
28.254709118186366,0.1649044967065657
28.264710785130855,0.06614714482551746
28.274712452075345,0.7300683944681531
28.28471411901984,1.6753509110278295
28.29471578596433,-0.1530285826396025
28.304717452908818,0.028598883572450995
28.31471911985331,0.19788826812371807
28.3247207867978,0.2404843301380694
28.33472245374229,0.2829499437175063
28.34472412068678,0.16117506159024964
28.354725787631274,0.28552746338600304
28.364727454575764,0.2281094180787103
28.374729121520254,0.2607876659840529
28.384730788464744,0.23487872671692353
28.394732455409237,0.17124158371439446
28.404734122353727,0.21458634185826275
28.414735789298216,0.2253509504955625
28.42473745624271,0.21066391548728652
28.4347391231872,0.3236004025109207
28.44474079013169,0.18006682038975533
28.45474245707618,0.2441474569262537
28.464744124020672,0.22459693300861394
28.474745790965162,0.3309685665615556
28.484747457909652,0.21268153133742812
28.494749124854142,0.2568980242206686
28.504750791798635,0.27404089891696065
28.514752458743125,0.1622026763294214
28.524754125687615,0.1871969459672945
28.534755792632108,0.20162625269936563
28.544757459576598,0.29263625706512514
28.554759126521088,0.2947554789685657
28.564760793465577,0.24664566117676143
28.57476246041007,0.20112874854563967
28.58476412735456,0.26395866323291456
28.59476579429905,0.23592064326801315
28.60476746124354,0.19256634412569143
28.614769128188033,0.27045291610494104
28.624770795132523,0.19864666889775984
28.634772462077013,0.1495861729557953
28.644774129021506,0.16999914295310675
28.654775795965996,0.19916860830829483
28.664777462910486,0.11768784365552554
28.674779129854976,0.19485711505075914
28.68478079679947,0.1888998597010877
28.69478246374396,0.11744428823021154
28.70478413068845,0.34021208693785465
28.71478579763294,0.10842194812260342
28.72478746457743,0.17744603792541228
28.73478913152192,0.21829646178731393
28.74479079846641,0.21043210995598982
28.754792465410905,0.23417266111146043
28.764794132355394,0.11291380274818788
28.774795799299884,0.21678284490535443
28.784797466244374,0.19773832566510174
28.794799133188867,0.214168502088072
28.804800800133357,0.20478941451569382
28.814802467077847,0.21752113730407927
28.824804134022337,0.1708330244206177
28.83480580096683,0.19679989460856256
28.84480746791132,0.12009225055418435
28.85480913485581,0.2275200171462887
28.864810801800303,0.22620788136866996
28.874812468744793,0.20054224092222925
28.884814135689282,0.22509889698445484
28.894815802633772,0.07018685790865617
28.904817469578266,0.23896184990201436
28.914819136522755,0.23963858442304553
28.924820803467245,0.1686411653911003
28.934822470411735,0.12563189969471478
28.94482413735623,0.15997302825341544
28.954825804300718,0.1998278125658765
28.964827471245208,0.16976535250531338
28.974829138189698,0.11134461511268087
28.98483080513419,0.1799968029204489
28.99483247207868,0.204578012945952
29.00483413902317,0.20259578401582423
29.014835805967664,0.1650791188847385
29.024837472912154,0.19862181730947032
29.034839139856643,0.2355135228703864
29.044840806801133,0.1587442553818948
29.054842473745627,0.09753320584932418
29.064844140690116,0.11442238739366112
29.074845807634606,0.0931754616612581
29.084847474579096,0.041907255998260354
29.09484914152359,0.042174065813103345
29.10485080846808,0.1006057704300348
29.11485247541257,0.1943930721248015
29.124854142357062,-0.03749784453273177
29.134855809301552,0.5781320491425727
29.14485747624604,1.6487562732495846
29.15485914319053,-0.27427731505676084
29.164860810135025,0.025324171231559688
29.174862477079515,0.09289854311037027
29.184864144024004,0.18975227006229523
29.194865810968494,0.1984154732695288
29.204867477912988,0.07379004436655748
29.214869144857477,0.18942295838109724
29.224870811801967,0.09950956285911013
29.23487247874646,0.16753468286893627
29.24487414569095,0.11979391511638361
29.25487581263544,0.08931173428312567
29.26487747957993,0.12103001065734602
29.274879146524423,0.18598880100029716
29.284880813468913,0.2281826692455503
29.294882480413403,0.09981090829021791
29.304884147357892,0.14986373644250867
29.314885814302386,0.1280576286106847
29.324887481246876,0.15599727748698863
29.334889148191365,0.04069471478570809
29.34489081513586,0.07692309156610933
29.35489248208035,0.04873301933023792
29.36489414902484,0.10212524722522553
29.374895815969328,0.04293058491796157
29.38489748291382,0.12105333172218066
29.39489914985831,0.10511232614989721
29.4049008168028,0.07656190420078351
29.41490248374729,0.027081419824906
29.424904150691784,0.1549078144137277
29.434905817636274,0.07731890766521678
29.444907484580764,0.1152874380856304
29.454909151525257,0.09222897729274775
29.464910818469747,0.1657083267892973
29.474912485414237,0.08460669708989867
29.484914152358726,0.09775158730861214
29.49491581930322,0.042333916753894016
29.50491748624771,0.017021569207964847
29.5149191531922,0.04153636771530118
29.52492082013669,0.12067084545553336
29.534922487081182,0.06099499142146882
29.544924154025672,0.07747283199425245
29.554925820970162,0.07994639968317098
29.564927487914655,0.13853053541248803
29.574929154859145,0.09673155041738232
29.584930821803635,0.0791742564785257
29.594932488748125,0.11032675589245326
29.604934155692618,0.06591633469188463
29.614935822637108,0.020299226252038276
29.624937489581598,0.11324776954109464
29.634939156526087,0.08647339102107007
29.64494082347058,-0.016397616328857417
29.65494249041507,0.04743127995931391
29.66494415735956,-0.030719764180388215
29.67494582430405,0.04810862396432743
29.684947491248543,0.011669226413926419
29.694949158193033,0.17142129546456647
29.704950825137523,0.058312862369224096
29.714952492082016,-0.005893461212470051
29.724954159026506,0.07607165898303561
29.734955825970996,-5.1996806507033366e-05
29.744957492915486,0.07905464957601695
29.75495915985998,0.0024568533580674734
29.76496082680447,0.001969307381997888
29.77496249374896,0.07391795212150584
29.78496416069345,0.040215672564279645
29.79496582763794,0.02034070281034797
29.80496749458243,0.010246083637880956
29.81496916152692,0.05726245698413676
29.824970828471415,0.02224409387656752
29.834972495415904,-0.0006672339804595258
29.844974162360394,-0.04146177205469462
29.854975829304884,0.05874243161489872
29.864977496249377,0.06331305634441971
29.874979163193867,-0.017195601116375494
29.884980830138357,-0.06456930998256727
29.894982497082847,0.07189377728915579
29.90498416402734,-0.031208685198956032
29.91498583097183,0.018286586930328294
29.92498749791632,-0.04612884330290027
29.934989164860813,-0.030264483141234873
29.944990831805303,-0.04780906897899083
29.954992498749792,0.12946408708189291
29.964994165694282,0.001722918574550637
29.974995832638776,-0.192065680562818
29.984997499583265,0.4866717023090099
29.994999166527755,1.5214972693161626
30.005000833472245,-0.3199874695551622
30.01500250041674,-0.11810367054018725
30.025004167361228,0.02536390585562644
30.035005834305718,-0.0007925816545279402
30.04500750125021,-0.007669706737731177
30.0550091681947,-0.02559053774547103
30.06501083513919,-0.013311039540070752
30.07501250208368,0.04315097774201946
30.085014169028174,0.04472517947454146
30.095015835972664,-0.045407325990548975
30.105017502917153,-0.013090895035844156
30.115019169861643,0.008060005024867145
30.125020836806137,-0.05809951769266665
30.135022503750626,0.029141834627073246
30.145024170695116,-0.041408710556928005
30.15502583763961,-0.035302285399741146
30.1650275045841,-0.048044560142702905
30.17502917152859,-0.07125761555866449
30.18503083847308,-0.12200334513365729
30.195032505417572,-0.018515232484269256
30.205034172362062,-0.02431602357217688
30.21503583930655,0.0052747194920421195
30.22503750625104,-0.08511794713078087
30.235039173195535,-0.17112187405900237
30.245040840140025,-0.05099188008644907
30.255042507084514,-0.07647612190334546
30.265044174029008,-0.10572413719610993
30.275045840973497,-0.027990928109096428
30.285047507917987,0.03550289521014722
30.295049174862477,-0.07583133975543865
30.30505084180697,-0.0865799492460911
30.31505250875146,-0.13853419417149587
30.32505417569595,-0.05995761560438885
30.33505584264044,-0.004500416997035808
30.345057509584933,-0.057206649683137344
30.355059176529423,-0.09441621282082249
30.365060843473913,-0.05556963246796254
30.375062510418402,-0.08322634288443403
30.385064177362896,-0.02285383593282033
30.395065844307386,-0.13160757400701045
30.405067511251875,-0.09077151838683105
30.41506917819637,-0.05729469625989843
30.42507084514086,-0.026731153922542647
30.43507251208535,0.002355948464981772
30.445074179029838,-0.126215852348051
30.45507584597433,-0.13687457470415504
30.46507751291882,-0.09076564545806867
30.47507917986331,-0.11739753493965269
30.4850808468078,0.06278865008452358
30.495082513752294,-0.16548919260375955
30.505084180696784,-0.15486006158964066
30.515085847641274,-0.08894341673858543
30.525087514585767,-0.15211553243765175
30.535089181530257,-0.11486449051032
30.545090848474747,-0.06803642106749533
30.555092515419236,-0.14050023254643623
30.56509418236373,-0.03177380948227648
30.57509584930822,-0.09715597015093598
30.58509751625271,-0.12432343893455988
30.5950991831972,-0.09621795512953481
30.605100850141692,-0.08256751376920031
30.615102517086182,-0.022426088835742417
30.625104184030672,-0.11360599337490587
30.635105850975165,-0.09463615715336234
30.645107517919655,-0.11659545742755835
30.655109184864145,-0.13165996437614524
30.665110851808635,-0.08268245616482914
30.675112518753128,-0.08388266437831185
30.685114185697618,-0.11761750437883545
30.695115852642108,-0.10174802465681039
30.705117519586597,-0.16683170173559592
30.71511918653109,-0.10094638014455834
30.72512085347558,-0.07714335296452657
30.73512252042007,-0.1442256802200609
30.745124187364564,-0.032903574018966555
30.755125854309053,-0.057096397516012254
30.765127521253543,-0.04456300438107137
30.775129188198033,-0.12567936285679465
30.785130855142526,-0.1371369108210512
30.795132522087016,-0.03862856553240218
30.805134189031506,-0.13951857153474628
30.815135855975996,-0.16212513460797573
30.82513752292049,-0.08498462555523062
30.83513918986498,-0.31593345755245394
30.84514085680947,0.30923043579767934
30.855142523753962,1.4515753107429332
30.86514419069845,-0.5345831970726724
30.87514585764294,-0.20363448150266925
30.88514752458743,-0.16345648006736763
30.895149191531925,-0.13949608875713226
30.905150858476414,-0.20054197626900255
30.915152525420904,-0.11822243965497455
30.925154192365394,-0.18305762798147707
30.935155859309887,-0.14915120160924356
30.945157526254377,-0.19297546737445245
30.955159193198867,-0.12861881012321602
30.96516086014336,-0.06573700831780754
30.97516252708785,-0.20624131169993384
30.98516419403234,-0.1798967253831861
30.99516586097683,-0.06221122893446482
31.005167527921323,-0.056437166444023204
31.015169194865813,-0.14660102891823956
31.025170861810302,-0.20035831209936006
31.035172528754792,-0.08824682129223148
31.045174195699285,-0.13622466942676115
31.055175862643775,-0.23351552928993863
31.065177529588265,-0.07766776529788073
31.07517919653276,-0.19190745334781023
31.085180863477248,-0.20843864088156858
31.095182530421738,-0.13900562317259402
31.105184197366228,-0.2064476279004558
31.11518586431072,-0.16484371061797407
31.12518753125521,-0.14823590986320115
31.1351891981997,-0.12250868510371929
31.14519086514419,-0.24091604682726017
31.155192532088684,-0.14372345127838848
31.165194199033174,-0.13441819516496153
31.175195865977663,-0.14869165764404776
31.185197532922153,-0.21612329382698142
31.195199199866646,-0.23529799787706257
31.205200866811136,-0.2023929348183236
31.215202533755626,-0.08164782592323108
31.22520420070012,-0.20637294508003845
