Time_s,ECG_mV
0.0,0.019738402887798972
0.010001666944490749,0.04798550738998712
0.020003333888981498,0.02361566612975559
0.030005000833472247,-0.038978235375552756
0.040006667777962995,0.02356639509587235
0.050008334722453744,0.08583347906394331
0.06001000166694449,0.040638476633963735
0.07001166861143523,0.05351477485577508
0.08001333555592599,0.057516726369608376
0.09001500250041675,0.026591462510620414
0.10001666944490749,-0.02315885632878146
0.11001833638939823,0.07663593336189142
0.12002000333388899,0.05960774598707905
0.13002167027837974,0.0022306491461874245
0.14002333722287047,-0.09415199045541699
0.15002500416736123,-0.029372888947680368
0.16002667111185198,0.06367783383688704
0.17002833805634274,-0.04189796366168056
0.1800300050008335,-0.00984533631603626
0.19003167194532422,0.05305012822934106
0.20003333888981498,0.0061712772648284085
0.21003500583430573,0.0648342602697718
0.22003667277879646,0.06680047577257817
0.23003833972328722,0.04012493737362009
0.24004000666777797,0.04390974609151401
0.2500416736122687,-0.03730954350211601
0.2600433405567595,0.06353882443222295
0.2700450075012502,0.10327018648486652
0.28004667444574094,0.1120705177913045
0.2900483413902317,-0.029008970469645866
0.30005000833472245,0.08541476996525574
0.31005167527921323,-0.026156752839223092
0.32005334222370396,0.06971414620090198
0.3300550091681947,-0.006542195055562541
0.3400566761126855,0.1279844610158099
0.3500583430571762,0.006442953125074681
0.360060010001667,0.06982789880245496
0.3700616769461577,0.10092530042905498
0.38006334389064844,0.012454512499573647
0.3900650108351392,0.0029732317019676505
0.40006667777962995,0.06926964734279624
0.4100683447241207,0.009419196423624245
0.42007001166861146,0.1164830272549395
0.4300716786131022,0.061367409765489295
0.4400733455575929,0.06800330186865898
0.4500750125020837,0.03555125994106705
0.46007667944657443,0.1045318725986214
0.4700783463910652,0.04832223709547185
0.48008001333555594,0.11379328788153673
0.49008168028004667,0.1252012733553327
0.5000833472245374,0.10551899286441313
0.5100850141690282,0.030040036120795345
0.520086681113519,-0.043312560945945294
0.5300883480580096,0.05132624007528927
0.5400900150025004,0.1829176363709162
0.5500916819469912,0.06382715829164254
0.5600933488914819,0.1337087600651337
0.5700950158359727,0.10278631336591908
0.5800966827804634,0.12053251711232278
0.5900983497249542,0.041926967199614834
0.6001000166694449,0.057438625719818545
0.6101016836139357,0.08823663033318226
0.6201033505584265,0.16457323040342298
0.6301050175029171,0.111714179151821
0.6401066844474079,0.11874354000881517
0.6501083513918987,0.06177034497089023
0.6601100183363894,0.1476214817491087
0.6701116852808802,0.15388788002299908
0.680113352225371,0.10513404216290954
0.6901150191698616,0.0755646947818323
0.7001166861143524,0.1691973163112666
0.7101183530588432,0.09966465296827569
0.720120020003334,0.11608529197290424
0.7301216869478246,0.10353536662462796
0.7401233538923154,0.041923908100555976
0.7501250208368062,0.11962928079715188
0.7601266877812969,0.10245014503759682
0.7701283547257877,0.20042571941759207
0.7801300216702785,0.1303118167481519
0.7901316886147691,0.1216212159974061
0.8001333555592599,0.15907318451584007
0.8101350225037507,0.20582560225591112
0.8201366894482414,0.11075410362713133
0.8301383563927321,0.08117600849959522
0.8401400233372229,0.11285233162864232
0.8501416902817136,0.24215733266620962
0.8601433572262044,0.09005155132493065
0.8701450241706952,0.16428148241002624
0.8801466911151858,0.13065249982783436
0.8901483580596766,0.18722137102195655
0.9001500250041674,0.1279565262369609
0.9101516919486582,0.20185997784983511
0.9201533588931489,0.12636810750064162
0.9301550258376396,0.17561259607852123
0.9401566927821304,0.21120835062162877
0.9501583597266211,0.21353887606344407
0.9601600266711119,0.0805126100544557
0.9701616936156027,0.1308216605198187
0.9801633605600933,0.14096814986326442
0.9901650275045841,0.18066018346051144
1.0001666944490748,0.11367846620684546
1.0101683613935657,0.24521854949451244
1.0201700283380564,0.14154661106050376
1.030171695282547,0.24599827518327327
1.040173362227038,0.07022588730711082
1.0501750291715286,0.13300872094780986
1.0601766961160193,0.20007295553000798
1.0701783630605102,0.10431692275493357
1.0801800300050008,0.20863227123713388
1.0901816969494915,0.13616956065266755
1.1001833638939824,0.15213289875857397
1.110185030838473,0.1624641164613493
1.1201866977829638,0.20685893128705954
1.1301883647274547,0.02083289606170835
1.1401900316719453,0.7233867411256907
1.1501916986164362,1.6633110563854676
1.160193365560927,-0.17169467290130055
1.1701950325054176,0.03378630543082329
1.1801966994499085,0.13992099392041127
1.1901983663943991,0.2618953174646104
1.2002000333388898,0.20748656221008963
1.2102017002833807,0.1499841906037341
1.2202033672278714,0.22380386136866773
1.230205034172362,0.1829329744278287
1.240206701116853,0.1394873779686157
1.2502083680613436,0.17775043130621088
1.2602100350058343,0.07753584782340744
1.2702117019503252,0.13569594091161602
1.2802133688948159,0.021742343582247636
1.2902150358393065,0.16722681686275293
1.3002167027837974,0.052414313905340015
1.310218369728288,0.1980126507308078
1.3202200366727788,0.19494111463591562
1.3302217036172697,0.22651530344632112
1.3402233705617603,0.16916213614053444
1.350225037506251,0.1736989651171418
1.360226704450742,0.29000816646952576
1.3702283713952326,0.2834566181631878
1.3802300383397232,0.280831348553564
1.3902317052842141,0.16380516262141256
1.4002333722287048,0.2590543720735516
1.4102350391731955,0.1864797593136851
1.4202367061176864,0.19737834463681916
1.430238373062177,0.2395551002789326
1.440240040006668,0.22200436523856953
1.4502417069511586,0.21838592685659658
1.4602433738956493,0.25987968548961343
1.4702450408401402,0.25689728530666583
1.4802467077846309,0.299902321035617
1.4902483747291215,0.20777368812095726
1.5002500416736124,0.1885313568130071
1.510251708618103,0.19065202239954993
1.5202533755625938,0.16870415243149184
1.5302550425070847,0.2036221982230937
1.5402567094515753,0.195813318808629
1.550258376396066,0.202957211021527
1.560260043340557,0.2831825550473104
1.5702617102850476,0.20303563612866785
1.5802633772295382,0.2563539831079305
1.5902650441740291,0.23146488428626882
1.6002667111185198,0.24760824796640035
1.6102683780630105,0.194362637977318
1.6202700450075014,0.17059223011268188
1.630271711951992,0.27795064178781603
1.6402733788964827,0.19004747007953726
1.6502750458409736,0.2755993542918396
1.6602767127854643,0.3142244405646359
1.670278379729955,0.3315832679275379
1.6802800466744459,0.35197213637374813
1.6902817136189365,0.25801740223120284
1.7002833805634272,0.1973789719416375
1.710285047507918,0.20528860318829406
1.7202867144524088,0.24188284604933896
1.7302883813968994,0.2773585726496905
1.7402900483413903,0.3430222083209915
1.750291715285881,0.24430391890911254
1.7602933822303717,0.31314807779929527
1.7702950491748626,0.35741600479238433
1.7802967161193533,0.27621987845971707
1.7902983830638441,0.2286100102007641
1.8003000500083348,0.3495433312204809
1.8103017169528255,0.24878620142228047
1.8203033838973164,0.3518065649990223
1.830305050841807,0.3045938003686276
1.8403067177862977,0.23786078133396935
1.8503083847307886,0.3980914452951234
1.8603100516752793,0.22032496520652525
1.87031171861977,0.2650576493390495
1.8803133855642609,0.35447931279803446
1.8903150525087515,0.36918585401643744
1.9003167194532422,0.20625062597275598
1.910318386397733,0.2926007870294683
1.9203200533422238,0.27941964316873724
1.9303217202867144,0.2550847822731048
1.9403233872312053,0.22538046305569231
1.950325054175696,0.3391660889783959
1.9603267211201867,0.2658189851327495
1.9703283880646776,0.2920019715580955
1.9803300550091683,0.278561795830325
1.990331721953659,0.22520809430631772
2.0003333888981496,0.3328721132740038
2.0103350558426407,0.2915493756522504
2.0203367227871314,0.32812945772100477
2.030338389731622,0.3745115926750534
2.0403400566761127,0.187872515466396
2.0503417236206034,0.2803627693766236
2.060343390565094,0.3563670556802132
2.070345057509585,0.2562854013982083
2.080346724454076,0.2950120762081014
2.0903483913985665,0.19637460487942193
2.100350058343057,0.28467291822013974
2.110351725287548,0.3797605700452554
2.1203533922320386,0.42177813614098164
2.1303550591765297,0.2726927210722759
2.1403567261210203,0.2623732415134414
2.150358393065511,0.31942743569860216
2.1603600600100017,0.27297620473533274
2.1703617269544924,0.33413178331113225
2.180363393898983,0.3328787583478461
2.190365060843474,0.09491048672790309
2.200366727787965,0.7362364854686962
2.2103683947324555,1.8770073541195966
2.220370061676946,-0.034882522350269084
2.230371728621437,0.26700060878290316
2.2403733955659275,0.3403157237864609
2.2503750625104186,0.3390114315299442
2.2603767294549093,0.3355466693164557
2.2703783963994,0.3106920216043827
2.2803800633438907,0.3788541938217331
2.2903817302883813,0.3670035266785737
2.3003833972328724,0.38902114361081164
2.310385064177363,0.3440859644944353
2.320386731121854,0.36552892945323856
2.3303883980663445,0.33556799407632254
2.340390065010835,0.36121309653454664
2.350391731955326,0.3942156037091793
2.360393398899817,0.2931049350899553
2.3703950658443076,0.23968997161140654
2.3803967327887983,0.38268190700371596
2.390398399733289,0.3178378304896221
2.4004000666777796,0.4383409877737941
2.4104017336222703,0.34017951535705315
2.4204034005667614,0.4673379015285078
2.430405067511252,0.40322130010176677
2.4404067344557427,0.46064005049892276
2.4504084014002334,0.3162347457684812
2.460410068344724,0.3915776757718091
2.4704117352892148,0.2836268260650236
2.480413402233706,0.3452815840104041
2.4904150691781965,0.28709033037712073
2.5004167361226872,0.3514060817168928
2.510418403067178,0.35580851836800237
2.5204200700116686,0.39626168179451227
2.5304217369561592,0.4011768300349077
2.5404234039006504,0.40560704399200775
2.550425070845141,0.3197614125159092
2.5604267377896317,0.40865669898736
2.5704284047341224,0.28980470114954804
2.580430071678613,0.4308978541690123
2.590431738623104,0.41424005608753406
2.600433405567595,0.36822552837914063
2.6104350725120855,0.3208613602349965
2.620436739456576,0.3595644832379571
2.630438406401067,0.38605733506620027
2.6404400733455575,0.4246487517063095
2.6504417402900486,0.36084936797109446
2.6604434072345393,0.37573289999454307
2.67044507417903,0.37532247709235395
2.6804467411235207,0.3973711516563409
2.6904484080680113,0.4025232416078062
2.700450075012502,0.37842852513336006
2.710451741956993,0.35520702621360833
2.720453408901484,0.28431035679284256
2.7304550758459745,0.3868119572417659
2.740456742790465,0.34609794990221837
2.750458409734956,0.3380263480711892
2.7604600766794465,0.3443980371571566
2.7704617436239376,0.4123514509196095
2.7804634105684283,0.4303283727453359
2.790465077512919,0.42037055051289346
2.8004667444574096,0.4241729983670158
2.8104684114019003,0.43073279135555737
2.820470078346391,0.40622901198655015
2.830471745290882,0.39147917177219876
2.8404734122353728,0.40971040369149814
2.8504750791798634,0.46519423049932346
2.860476746124354,0.40592178406035606
2.8704784130688448,0.38853709569333544
2.880480080013336,0.43908221764212874
2.8904817469578266,0.4104644322617032
2.9004834139023172,0.40038590127298607
2.910485080846808,0.3750693097158626
2.9204867477912986,0.38094858660284137
2.9304884147357892,0.39653396102552596
2.9404900816802804,0.38146286923378814
2.950491748624771,0.3819868033432769
2.9604934155692617,0.3866944189831523
2.9704950825137524,0.4432226675653697
2.980496749458243,0.4262570290393851
2.9904984164027337,0.383316940024837
3.000500083347225,0.4603778170818582
3.0105017502917155,0.32052218861951026
3.020503417236206,0.42109282710217427
3.030505084180697,0.38727655113614184
3.0405067511251875,0.428049385021267
3.050508418069678,0.3745010722976398
3.0605100850141693,0.3435380504885501
3.07051175195866,0.40772871528323673
3.0805134189031507,0.3222080963350575
3.0905150858476413,0.4408538687674237
3.100516752792132,0.4109153549149789
3.1105184197366227,0.40831598904562516
3.120520086681114,0.4186674918645274
3.1305217536256045,0.5230588110993868
3.140523420570095,0.41013847064715886
3.150525087514586,0.34159987822952503
3.1605267544590765,0.43317844394864624
3.170528421403567,0.39434334598275395
3.1805300883480583,0.39908383485180043
3.190531755292549,0.25036969991943225
3.2005334222370396,0.8926774730245443
3.2105350891815303,1.890527342664752
3.220536756126021,0.0645450822640096
3.230538423070512,0.355961450386139
3.2405400900150028,0.5214952445380985
3.2505417569594934,0.4522612994024767
3.260543423903984,0.4546258735597055
3.270545090848475,0.5012865632944208
3.2805467577929655,0.4524884274171478
3.2905484247374566,0.394405396087586
3.3005500916819472,0.443111542328677
3.310551758626438,0.37953006976300185
3.3205534255709286,0.4661157907807364
3.3305550925154193,0.5115403878199961
3.34055675945991,0.4419369203971537
3.350558426404401,0.41890965268392893
3.3605600933488917,0.5067602156288191
3.3705617602933824,0.48609812741378
3.380563427237873,0.4350533356876338
3.3905650941823637,0.3922793303133883
3.4005667611268544,0.3377030639521332
3.4105684280713455,0.5109463632278002
3.420570095015836,0.5079454765534452
3.430571761960327,0.46158855024014384
3.4405734289048175,0.4233241051924217
3.450575095849308,0.4343470430598371
3.460576762793799,0.48583212555916366
3.47057842973829,0.4150968883601195
3.4805800966827807,0.48796436986455083
3.4905817636272714,0.3851319420091138
3.500583430571762,0.49220158013261367
3.5105850975162527,0.4365028352921258
3.5205867644607434,0.45421038362132216
3.5305884314052345,0.3859088123172303
3.540590098349725,0.460473301032638
3.550591765294216,0.5314586926461307
3.5605934322387065,0.44749627182466045
3.570595099183197,0.41222129697144827
3.5805967661276883,0.4079852341980684
3.590598433072179,0.4856392138839521
3.6006001000166696,0.4989348963019519
3.6106017669611603,0.4762895407380838
3.620603433905651,0.44857908488350906
3.6306051008501417,0.513833224490968
3.6406067677946328,0.46152418723918454
3.6506084347391234,0.3631578216936499
3.660610101683614,0.4082504187942565
3.670611768628105,0.4637352139197801
3.6806134355725955,0.5013427109223211
3.690615102517086,0.3858265578509885
3.7006167694615772,0.44865188705195913
3.710618436406068,0.4081621464711212
3.7206201033505586,0.47813462838268916
3.7306217702950493,0.4501970862832291
3.74062343723954,0.5196774944615079
3.7506251041840306,0.49835120067622735
3.7606267711285217,0.4951970687263075
3.7706284380730124,0.5249835248150087
3.780630105017503,0.45007708703176474
3.7906317719619937,0.4703854417681082
3.8006334389064844,0.4213264923082563
3.810635105850975,0.3931421520073204
3.820636772795466,0.5605195338148564
3.830638439739957,0.5077780209162479
3.8406401066844476,0.4107416493435854
3.8506417736289382,0.39188287231018626
3.860643440573429,0.4607480327632478
3.87064510751792,0.5390856978135118
3.8806467744624107,0.5623425641519313
3.8906484414069014,0.5459208705988183
3.900650108351392,0.5602646778671878
3.9106517752958827,0.3335251334044088
3.9206534422403734,0.37196645047145704
3.9306551091848645,0.5195243567911303
3.940656776129355,0.49506861438071503
3.950658443073846,0.5596147802693232
3.9606601100183365,0.427223184509508
3.970661776962827,0.5194022860302143
3.980663443907318,0.46039054647507355
3.990665110851809,0.5535050925543192
4.000666777796299,0.4624947963700151
4.01066844474079,0.408231736627301
4.020670111685281,0.3859774385767641
4.030671778629772,0.45575224418322346
4.040673445574263,0.4848214429833054
4.0506751125187535,0.4696308333172217
4.060676779463244,0.48806881720140666
4.070678446407735,0.39389704277006626
4.0806801133522255,0.41098058476671845
4.090681780296716,0.513757199927591
4.100683447241207,0.5171822873529877
4.1106851141856975,0.5493956859982038
4.120686781130188,0.44805075609565126
4.130688448074679,0.5047997331502061
4.14069011501917,0.3262323554675143
4.150691781963661,1.0392909210342183
4.160693448908152,1.9533660284007826
4.170695115852642,0.08762695145151789
4.180696782797133,0.45242191889069405
4.190698449741624,0.5669407913798653
4.200700116686114,0.42782790604552506
4.210701783630605,0.4043423971525349
4.220703450575096,0.4859826361949549
4.2307051175195864,0.4748091063499203
4.240706784464077,0.5781439434329112
4.250708451408569,0.5140446308562099
4.260710118353059,0.5218074616599641
4.27071178529755,0.5036397946245647
4.280713452242041,0.5091778806764297
4.290715119186531,0.4408313289543086
4.300716786131022,0.47366153452195875
4.310718453075513,0.5203727234802566
4.320720120020003,0.4895199976288581
4.330721786964494,0.4308266466242129
4.340723453908985,0.4526303829297967
4.350725120853475,0.4926367334329921
4.360726787797966,0.488929871167448
4.370728454742458,0.5411717788839161
4.380730121686948,0.4564417067470129
4.390731788631439,0.604682660416336
4.40073345557593,0.5084562983423448
4.41073512252042,0.4567078787585727
4.420736789464911,0.4185103914220041
4.430738456409402,0.47167549271795817
4.440740123353892,0.49606864528850736
4.450741790298383,0.5228608249657962
4.460743457242874,0.5647751626394224
4.470745124187364,0.41748833873644836
4.480746791131855,0.5519443001930702
4.490748458076347,0.43873871784649754
4.500750125020837,0.5078295111147451
4.510751791965328,0.5554874681654074
4.520753458909819,0.4978215389760334
4.530755125854309,0.4849117576135601
4.5407567927988,0.525891193350811
4.550758459743291,0.519641140655677
4.560760126687781,0.4640395503052103
4.570761793632272,0.41952433741955514
4.580763460576763,0.5165773791582448
4.590765127521253,0.5067577939719284
4.600766794465745,0.5577796226757463
4.6107684614102356,0.3754714463344189
4.620770128354726,0.5851095683443996
4.630771795299217,0.4982462456044005
4.640773462243708,0.478251544048372
4.650775129188198,0.4002206002832593
4.660776796132689,0.4543775641129384
4.67077846307718,0.5358556196115342
4.68078013002167,0.5774903981454558
4.690781796966161,0.430181441911421
4.700783463910652,0.4474225323460795
4.710785130855142,0.4470475756747615
4.720786797799634,0.4790786339183928
4.7307884647441245,0.5262012912782009
4.740790131688615,0.461881880892693
4.750791798633106,0.5262201851323788
4.7607934655775965,0.3971937077943123
4.770795132522087,0.5189815776309715
4.780796799466578,0.47086398146664804
4.7907984664110685,0.4707130260989628
4.800800133355559,0.439860716520655
4.81080180030005,0.5332261223286257
4.820803467244541,0.6183495504288874
4.830805134189032,0.5646765002652447
4.840806801133523,0.4439022654461566
4.8508084680780135,0.594555328854689
4.860810135022504,0.5877143915372111
4.870811801966995,0.480708733565377
4.8808134689114855,0.45565630400103235
4.890815135855976,0.558567511667253
4.900816802800467,0.5265033612572697
4.9108184697449575,0.4417074426335071
4.920820136689448,0.5311735167118116
4.930821803633939,0.5247977119373585
4.9408234705784295,0.49308217724753445
4.950825137522921,0.4969967468645703
4.960826804467412,0.47677401567022476
4.970828471411902,0.5194391155117266
4.980830138356393,0.4838824342515889
4.990831805300884,0.5799423592596398
5.0008334722453744,0.48411150038441897
5.010835139189865,0.5557272997798768
5.020836806134356,0.5280705835813102
5.0308384730788465,0.393755044365783
5.040840140023337,0.2859345993277782
5.050841806967828,1.028344023283442
5.0608434739123185,2.0037837090233888
5.07084514085681,0.11960573947339086
5.080846807801301,0.45575473589318394
5.090848474745791,0.40930817391773644
5.100850141690282,0.5519369950468442
5.110851808634773,0.5072484650951439
5.120853475579263,0.5399831773114823
5.130855142523754,0.5130010969821154
5.140856809468245,0.45433866698788533
5.150858476412735,0.5007452067287018
5.160860143357226,0.4025212146634158
5.170861810301717,0.5221795077398945
5.180863477246208,0.5052298443827155
5.190865144190699,0.5505579032470267
5.20086681113519,0.545735805082876
5.21086847807968,0.49089977519309147
5.220870145024171,0.5783429270814715
5.230871811968662,0.5234082106667758
5.240873478913152,0.5124782305064224
5.250875145857643,0.4961222410687055
5.260876812802134,0.5149408923581035
5.270878479746624,0.5441359093537464
5.280880146691115,0.5274822640905318
5.290881813635606,0.5885532507432836
5.300883480580097,0.567386601081741
5.310885147524588,0.4874628324976111
5.320886814469079,0.36950725845864374
5.330888481413569,0.49744790462990107
5.34089014835806,0.4635940645317226
5.350891815302551,0.447335082616584
5.360893482247041,0.5099887459953805
5.370895149191532,0.5377910886346458
5.380896816136023,0.4806041762723742
5.390898483080513,0.4866006655375477
5.400900150025004,0.5144204848893792
5.410901816969495,0.5935215858738756
5.420903483913986,0.4915454773771772
5.430905150858477,0.33618327286653965
5.440906817802968,0.5217025522004379
5.450908484747458,0.47847888076657197
5.460910151691949,0.43874130459997857
5.47091181863644,0.5802641305252446
5.48091348558093,0.5177581420645929
5.490915152525421,0.4880752018246135
5.500916819469912,0.535228637177348
5.510918486414402,0.4585684584626734
5.520920153358893,0.4777099764606964
5.5309218203033845,0.5113970868437404
5.540923487247875,0.5737507125237398
5.550925154192366,0.4404446590119939
5.5609268211368565,0.5272455926432786
5.570928488081347,0.4364061482448683
5.580930155025838,0.5155847689994557
5.590931821970329,0.44435649390508947
5.600933488914819,0.4623092192663577
5.61093515585931,0.5471574551296947
5.620936822803801,0.5457698333371932
5.630938489748291,0.4370594329148503
5.640940156692782,0.4542942972738602
5.6509418236372735,0.4292284353583175
5.660943490581764,0.47960015743323225
5.670945157526255,0.4850890227444458
5.6809468244707455,0.48377751634231975
5.690948491415236,0.378738101055233
5.700950158359727,0.4809720958584188
5.7109518253042175,0.5342397731154956
5.720953492248708,0.4663545968269327
5.730955159193199,0.5055901933480175
5.7409568261376895,0.5280516548429682
5.75095849308218,0.5941171126462748
5.760960160026672,0.4771061987575032
5.7709618269711624,0.4169464119193534
5.780963493915653,0.461093669847704
5.790965160860144,0.49740050289037757
5.8009668278046345,0.42082293876429355
5.810968494749125,0.4963465219200188
5.820970161693616,0.5431453611530102
5.8309718286381065,0.4994896742239039
5.840973495582597,0.4683171717471695
5.850975162527088,0.454320155008387
5.8609768294715785,0.42406908360731543
5.870978496416069,0.5485185402637724
5.880980163360561,0.5127668792367065
5.890981830305051,0.5062242774610248
5.900983497249542,0.49543110949847097
5.910985164194033,0.15746019748315138
5.920986831138523,0.9151695926868846
5.930988498083014,1.9912702250479004
5.940990165027505,0.07703898213013206
5.950991831971995,0.338896168439817
5.960993498916486,0.5174730481571838
5.970995165860977,0.4597106052937207
5.9809968328054675,0.45420186274941715
5.990998499749958,0.38242319679409503
6.00100016669445,0.4765737272883686
6.01100183363894,0.38467203909340175
6.021003500583431,0.5600881322358533
6.031005167527922,0.4619574411451849
6.041006834472412,0.4756666297722147
6.051008501416903,0.5427449416476
6.061010168361394,0.43571205392034923
6.071011835305884,0.49900842730537626
6.081013502250375,0.501669187422481
6.091015169194866,0.42887164534013644
6.101016836139356,0.5227863580303591
6.111018503083848,0.5617911866687909
6.121020170028339,0.4515086696913015
6.131021836972829,0.4961624687049559
6.14102350391732,0.5216597382983609
6.151025170861811,0.48471543316692445
6.161026837806301,0.45266411160628345
6.171028504750792,0.44143016843769123
6.181030171695283,0.4656454391056289
6.191031838639773,0.46265583065211247
6.201033505584264,0.4942906665942517
6.211035172528755,0.5138297690516161
6.221036839473245,0.47904989122368796
6.231038506417737,0.49396597251899943
6.241040173362228,0.4871822557388701
6.251041840306718,0.5263781280847317
6.261043507251209,0.5135593871411464
6.2710451741957,0.4893254995848078
6.28104684114019,0.4165437555754259
6.291048508084681,0.44040695980677524
6.301050175029172,0.5403411459731807
6.311051841973662,0.44859626436637956
6.321053508918153,0.47907177553101404
6.331055175862644,0.4172432839618099
6.341056842807134,0.3970768084472141
6.351058509751626,0.45225516217868594
6.361060176696117,0.4068234897915916
6.371061843640607,0.44602155519311254
6.381063510585098,0.4863443602352428
6.391065177529589,0.44891100561434316
6.401066844474079,0.4840495674483629
6.41106851141857,0.49203836714556554
6.421070178363061,0.4586314650357872
6.431071845307551,0.45050127739481116
6.441073512252042,0.46507218324742944
6.451075179196533,0.4797645920090003
6.461076846141024,0.48113192526760484
6.471078513085515,0.5692649917650521
6.4810801800300055,0.42783082835186925
6.491081846974496,0.4711143653073078
6.501083513918987,0.5104384415015002
6.5110851808634775,0.4683913624285777
6.521086847807968,0.43516168899313185
6.531088514752459,0.4074173334433321
6.54109018169695,0.3893011312318101
6.55109184864144,0.4504521922670624
6.561093515585931,0.389894990572575
6.571095182530422,0.45268706787739094
6.581096849474913,0.4274401512867082
6.591098516419404,0.4499136100585592
6.6011001833638945,0.42052416111493346
6.611101850308385,0.4435688083019964
6.621103517252876,0.42150387926899513
6.6311051841973665,0.44139906881279817
6.641106851141857,0.35601576880722485
6.651108518086348,0.4629670083270813
6.6611101850308385,0.3841997507669225
6.671111851975329,0.45956492911441904
6.68111351891982,0.343962448352569
6.6911151858643105,0.4729314120948427
6.701116852808802,0.4071674513012301
6.711118519753293,0.27316667980740617
6.721120186697783,0.4447132687077478
6.731121853642274,0.4241587150259572
6.741123520586765,0.3828337955781098
6.7511251875312555,0.2110964965945721
6.761126854475746,0.8922861872813471
6.771128521420237,1.9660171429896394
6.7811301883647275,0.02053159631199744
6.791131855309218,0.303442355007963
6.801133522253709,0.38880348968375866
6.8111351891982,0.41108091785843454
6.821136856142691,0.4312123624275212
6.831138523087182,0.5330101308540551
6.841140190031672,0.39856103326582526
6.851141856976163,0.3722356171440516
6.861143523920654,0.42050296102113954
6.871145190865144,0.3929940222328423
6.881146857809635,0.4751293737830504
6.891148524754126,0.3868388842933565
6.901150191698616,0.3434069506074575
6.911151858643107,0.3796470068921854
6.921153525587598,0.4800579323900993
6.931155192532089,0.45524276155450966
6.94115685947658,0.4599314781967961
6.951158526421071,0.4513893994024325
6.961160193365561,0.4201697327974826
6.971161860310052,0.3801485211166328
6.981163527254543,0.267089620721496
6.991165194199033,0.41880199623872744
7.001166861143524,0.4553500033246879
7.011168528088015,0.4186195882274863
7.021170195032505,0.3396165178421019
7.031171861976996,0.32806527158110527
7.041173528921487,0.5134999360027152
7.051175195865978,0.48998822296096484
7.061176862810469,0.41822671842015197
7.07117852975496,0.4619264919101697
7.08118019669945,0.4518521079735157
7.091181863643941,0.40280529006442645
7.101183530588432,0.336166555951519
7.111185197532922,0.46735346181204834
7.121186864477413,0.4652430229163705
7.131188531421904,0.3818003737528259
7.141190198366394,0.45748243226373275
7.151191865310885,0.37662364907505486
7.161193532255377,0.30245405788644836
7.171195199199867,0.3476197565411133
7.181196866144358,0.37255327110467984
7.191198533088849,0.38477817052772534
7.201200200033339,0.43214695341917825
7.21120186697783,0.3485054941076763
7.221203533922321,0.37677806496743915
7.231205200866811,0.4043881381045732
7.241206867811302,0.2100368599362519
7.251208534755793,0.39741087502606365
7.261210201700283,0.3472318651021494
7.271211868644774,0.34055537823438625
7.2812135355892655,0.27595743436703907
7.291215202533756,0.3441208488837969
7.301216869478247,0.3824488163085701
7.311218536422738,0.40750185762143576
7.321220203367228,0.4123699107129589
7.331221870311719,0.3926778009588965
7.34122353725621,0.34959362780324654
7.3512252042007,0.3574207334186935
7.361226871145191,0.3326253145574725
7.371228538089682,0.2932925317673665
7.381230205034172,0.4072168433405796
7.391231871978664,0.28381136892398934
7.4012335389231545,0.32119190095918293
7.411235205867645,0.42040596333239594
7.421236872812136,0.3251592909371094
7.4312385397566265,0.3704495901086747
7.441240206701117,0.32935093394478676
7.451241873645608,0.33778150861900236
7.4612435405900985,0.3966658709151709
7.471245207534589,0.34416961087230413
7.48124687447908,0.3123305568662996
7.4912485414235706,0.34465047911803537
7.501250208368061,0.33907249393496225
7.511251875312553,0.36913799812826015
7.5212535422570435,0.3840515810348575
7.531255209201534,0.22061427683412557
7.541256876146025,0.4346292170514269
7.5512585430905155,0.34628970242025325
7.561260210035006,0.4100952923019746
7.571261876979497,0.21680985367882216
7.5812635439239875,0.8916914280988271
7.591265210868478,1.8362940631061564
7.601266877812969,-0.03221326996640339
7.6112685447574595,0.2711865890414008
7.62127021170195,0.3885237254252632
7.631271878646442,0.375242560569358
7.641273545590932,0.3733508730478172
7.651275212535423,0.38498017132575174
7.661276879479914,0.298615801796048
7.671278546424404,0.3889384714552585
7.681280213368895,0.3755886514099156
7.691281880313386,0.3263499476317424
7.7012835472578764,0.2791143303070007
7.711285214202367,0.2996872917809888
7.721286881146858,0.36386424957012065
7.7312885480913485,0.3281415413623648
7.74129021503584,0.2783051587074985
7.751291881980331,0.28078868197919304
7.761293548924821,0.3102772264076862
7.771295215869312,0.3717143943799646
7.781296882813803,0.21787895813121066
7.791298549758293,0.2664879093094199
7.801300216702784,0.2748626101403037
7.811301883647275,0.32083135908119653
7.821303550591765,0.41103346696141724
7.831305217536256,0.2752594646905763
7.841306884480747,0.40585653123771015
7.851308551425237,0.3140703744617411
7.861310218369729,0.2636511331113172
7.87131188531422,0.38050998460982166
7.88131355225871,0.27876900308184044
7.891315219203201,0.3321591980890461
7.901316886147692,0.31304449770752657
7.911318553092182,0.2977293728746945
7.921320220036673,0.30859020274876414
7.931321886981164,0.3290752666476928
7.941323553925654,0.2906174961950284
7.951325220870145,0.21899956656116287
7.961326887814636,0.27328383214219676
7.971328554759126,0.31997588892377155
7.981330221703618,0.2935633097145087
7.991331888648109,0.29055359442113154
8.001333555592598,0.23230969722921607
8.01133522253709,0.3904339283916968
8.02133688948158,0.2886541737886804
8.031338556426071,0.37371000354405526
8.041340223370563,0.29439961230725376
8.051341890315053,0.26653631130158495
8.061343557259544,0.27204174656350083
8.071345224204034,0.30661486506237173
8.081346891148526,0.31882971270008853
8.091348558093015,0.30178372191403013
8.101350225037507,0.27046762371964944
8.111351891981997,0.22380524438871943
8.121353558926488,0.2617069325440275
8.131355225870978,0.28801476302051515
8.14135689281547,0.297414131255663
8.151358559759961,0.26885419456879694
8.161360226704451,0.2918658313349506
8.171361893648942,0.13300837899410392
8.181363560593432,0.26115425523177904
8.191365227537924,0.21954500041218444
8.201366894482414,0.2638883395550997
8.211368561426905,0.27402415709160716
8.221370228371395,0.23268969548455418
8.231371895315887,0.22067688546433115
8.241373562260376,0.2719635477822138
8.251375229204868,0.31012559931478867
8.261376896149358,0.296838276128921
8.27137856309385,0.33661624925881195
8.28138023003834,0.22409333721988794
8.29138189698283,0.18524663997451607
8.301383563927322,0.1693945232661684
8.311385230871812,0.22677287200604482
8.321386897816303,0.3323437066723405
8.331388564760793,0.23807023904643382
8.341390231705285,0.2321314744412217
8.351391898649775,0.3159428434606301
8.361393565594266,0.05317117019924156
8.371395232538756,0.7176782427951816
8.381396899483248,1.7854054518363134
8.391398566427739,-0.0790561386247003
8.401400233372229,0.14568547272349788
8.41140190031672,0.2722782752282992
8.42140356726121,0.2363969764037628
8.431405234205702,0.14871872010324516
8.441406901150192,0.2713747171724541
8.451408568094683,0.213831141985751
8.461410235039173,0.1661055850196489
8.471411901983664,0.2797531894068401
8.481413568928154,0.2954388749784018
8.491415235872646,0.2807770529768019
8.501416902817137,0.24946170348609575
8.511418569761627,0.20686114299787195
8.521420236706119,0.29036101475273113
8.531421903650608,0.1602961735934211
8.5414235705951,0.22153920954917966
8.55142523753959,0.24771142774821228
8.561426904484081,0.2015790377015172
8.571428571428571,0.15909138023823594
8.581430238373063,0.20781395340305633
8.591431905317553,0.18684999902488728
8.601433572262044,0.21143872722292767
8.611435239206534,0.13088045950533383
8.621436906151025,0.20770470258895274
8.631438573095517,0.22287959748362404
8.641440240040007,0.17781090527849125
8.651441906984498,0.19128653959746877
8.661443573928988,0.21053959524340254
8.67144524087348,0.11842643655393596
8.68144690781797,0.19652777082286868
8.691448574762461,0.2551778532403808
8.70145024170695,0.20041237599499584
8.711451908651442,0.22766870267131453
8.721453575595932,0.15705350744463586
8.731455242540424,0.1474466596805031
8.741456909484915,0.19230950823990084
8.751458576429405,0.20117684545428988
8.761460243373897,0.19055580967247054
8.771461910318386,0.1293921994573199
8.781463577262878,0.1684088435067054
8.791465244207368,0.21423262032486443
8.80146691115186,0.1932235041474345
8.811468578096349,0.2035545148140235
8.82147024504084,0.2758878153711639
8.83147191198533,0.13922018274002804
8.841473578929822,0.08572980949638029
8.851475245874314,0.18107218855935883
8.861476912818803,0.19555138767146182
8.871478579763295,0.17785761466493694
8.881480246707785,0.1480334443229099
8.891481913652276,0.1501136210921812
8.901483580596766,0.2522108527984368
8.911485247541258,0.22564680078240595
8.921486914485747,0.13252418410770428
8.931488581430239,0.16419387907793886
8.941490248374729,0.10320917669427607
8.95149191531922,0.16566565796681965
8.96149358226371,0.14385818848232784
8.971495249208202,0.16678559298414747
8.981496916152693,0.1586291263527993
8.991498583097183,0.1561407657242414
9.001500250041675,0.16759415499540964
9.011501916986164,0.1843770169273248
9.021503583930656,0.15786945951842926
9.031505250875146,0.12515776248458396
9.041506917819637,0.1877178933883538
9.051508584764127,0.11883921939687055
9.061510251708619,0.15294352301959338
9.071511918653108,0.22580706957136723
9.0815135855976,0.11881447188931679
9.091515252542091,0.13980175559210575
9.101516919486581,0.19039122332380345
9.111518586431073,0.11912979042089514
9.121520253375563,0.06953359641879599
9.131521920320054,0.1440428812552533
9.141523587264544,-0.13383117010028828
9.151525254209036,0.6257588390474991
9.161526921153525,1.6254774426985072
9.171528588098017,-0.31404636510029316
9.181530255042507,0.03559782589006516
9.191531921986998,0.1446060355894806
9.20153358893149,0.16932116138091705
9.21153525587598,0.07120762899551217
9.221536922820471,0.07635681133036447
9.231538589764961,0.13075976776528006
9.241540256709452,0.08569064000752852
9.251541923653942,0.09957899664315265
9.261543590598434,0.14328732904836894
9.271545257542924,0.059275433762600443
9.281546924487415,0.09697923826394274
9.291548591431905,0.09468756805536199
9.301550258376396,0.067878990757689
9.311551925320888,0.13300431616282832
9.321553592265378,0.18123816860483832
9.33155525920987,0.04331484549822794
9.34155692615436,0.06571595918558233
9.35155859309885,0.06087658669985393
9.36156026004334,0.09766253911993453
9.371561926987832,0.2067418430017427
9.381563593932322,0.09651615478453446
9.391565260876813,0.09673782153649496
9.401566927821303,0.07336623437019348
9.411568594765795,0.061691635265060205
9.421570261710285,0.10670032203538389
9.431571928654776,0.06786613699935541
9.441573595599268,0.04820445352895943
9.451575262543757,0.12061432785372317
9.461576929488249,0.05914471691480214
9.471578596432739,0.07857198348686416
9.48158026337723,0.041418418449488445
9.49158193032172,0.006143412509998503
9.501583597266212,0.12885394199887867
9.511585264210701,0.06346856954159719
9.521586931155193,0.048514017963248265
9.531588598099683,0.12244903720544795
9.541590265044174,0.11057580375658876
9.551591931988666,0.0853052853495635
9.561593598933156,0.08074722009922437
9.571595265877647,0.1817987276709255
9.581596932822137,0.08997067086296885
9.591598599766629,0.03228086120786585
9.601600266711118,0.08009936388789636
9.61160193365561,0.02431264828419654
9.6216036006001,-0.012969392362957646
9.631605267544591,0.08331366630389318
9.641606934489081,0.07911629326611179
9.651608601433573,-0.008900163762830579
9.661610268378064,0.04022838549648377
9.671611935322554,0.05364251682528445
9.681613602267046,-0.00874367722694002
9.691615269211535,0.0021023899915518576
9.701616936156027,0.05353248704852902
9.711618603100517,0.042326957179799465
9.721620270045008,0.03287976664504101
9.731621936989498,0.1338303525097026
9.74162360393399,0.052859040499704836
9.75162527087848,0.05114942676857292
9.761626937822971,-0.009214456032847262
9.77162860476746,0.08809567663433213
9.781630271711952,0.03104211980418699
9.791631938656444,0.02297389810499675
9.801633605600934,0.05658248338089364
9.811635272545425,0.03628079160804725
9.821636939489915,-0.018476585578864325
9.831638606434407,-0.0028807091971611715
9.841640273378896,0.08606320044080469
9.851641940323388,-0.02844764167400658
9.861643607267878,-0.07504441071812948
9.87164527421237,-0.08757139139145367
9.881646941156859,0.017565681368451318
9.89164860810135,0.0008248334138391371
9.901650275045842,-0.012534243353442184
9.911651941990332,-0.2240909015686778
9.921653608934824,0.5741602708086319
9.931655275879313,1.5073869255529029
9.941656942823805,-0.4016181936900203
9.951658609768295,0.030413899953906254
9.961660276712786,0.02000887412632707
9.971661943657276,-0.1255171375007817
9.981663610601768,-0.06099618831505299
9.991665277546257,0.11408850184892046
10.001666944490749,-0.023492589951185933
10.01166861143524,0.018845338578793457
10.02167027837973,-0.14696104099377166
10.031671945324222,0.07872804097327746
10.041673612268712,-0.008659512515845447
10.051675279213203,-0.052719841392825234
10.061676946157693,-0.06394567042522727
10.071678613102184,0.02293324867310626
10.081680280046674,0.030378276990086057
10.091681946991166,0.03918757324245386
10.101683613935656,-0.002924572810584008
10.111685280880147,-0.06708042232512657
10.121686947824637,-0.012838591136506292
10.131688614769129,-0.05131774245362658
10.14169028171362,-0.06883167346787394
10.15169194865811,-0.041945017408220334
10.161693615602601,-0.07821106086469662
10.171695282547091,-0.032885853615058816
10.181696949491583,-0.035691266518503885
10.191698616436073,-0.11152774274472736
10.201700283380564,-0.06697485897249741
10.211701950325054,-0.0029059540474226445
10.221703617269545,-0.05804485623252041
10.231705284214035,0.0019663293246348634
10.241706951158527,-0.022981459845241047
10.251708618103018,0.0050064603800560326
10.261710285047508,-0.054149034696029455
10.271711951992,-0.11783271458225783
10.28171361893649,0.03399854481038268
10.291715285880981,-0.034059942334949994
10.30171695282547,-0.21025920659989372
10.311718619769962,-0.0010146480279620423
10.321720286714452,-0.06677813959782693
10.331721953658944,-0.03708596535034003
10.341723620603434,-0.010903824996600399
10.351725287547925,-0.09922620644965433
10.361726954492417,-0.09101486770939721
10.371728621436906,0.01580664534450027
10.381730288381398,-0.1680038935295588
10.391731955325888,0.041928309619541006
10.40173362227038,-0.03883337719330336
10.41173528921487,0.018587290710803228
10.42173695615936,-0.09743403120000221
10.43173862310385,-0.09914546238421326
10.441740290048342,-0.1326344837941025
10.451741956992832,-0.038351745717055255
10.461743623937323,-0.10842406218314735
10.471745290881813,-0.011834652803959497
10.481746957826305,-0.1482263840082061
10.491748624770796,-0.10829630289811171
10.501750291715286,-0.09524028647208307
10.511751958659778,-0.12003084855223503
10.521753625604267,-0.02924532733352512
10.531755292548759,-0.008976237013146579
10.541756959493249,-0.12374004713031367
10.55175862643774,-0.08220646247219816
10.56176029338223,-0.030611595208424526
10.571761960326722,0.017321905051248837
10.581763627271211,-0.14326102321012002
10.591765294215703,-0.13555009425611372
10.601766961160195,-0.09167514488545678
10.611768628104684,-0.0677421437647272
10.621770295049176,0.01945504092434204
10.631771961993666,-0.15538843884363043
10.641773628938157,-0.1462936717337227
10.651775295882647,-0.18479987862355443
10.661776962827139,-0.09931555574879519
10.671778629771628,-0.2986148500435621
10.68178029671612,0.2956902827499345
10.69178196366061,1.3362187100277008
10.701783630605101,-0.5591834739381502
10.711785297549593,-0.20046569403716952
10.721786964494083,-0.07241261994974657
10.731788631438574,-0.12194825767383849
10.741790298383064,-0.1489008604536834
10.751791965327556,-0.13636586754944494
10.761793632272045,-0.10733394279794542
10.771795299216537,-0.1112678083293558
10.781796966161027,-0.14404061549043093
10.791798633105518,-0.15501215509558242
10.801800300050008,-0.1274189568773303
10.8118019669945,-0.1514597081226494
10.82180363393899,-0.2012794806539989
10.831805300883481,-0.1580032952098416
10.841806967827972,-0.0990113697125283
10.851808634772462,-0.1962281388315239
10.861810301716954,-0.10862990972096319
10.871811968661444,-0.12481078889056775
10.881813635605935,-0.10458967530799146
10.891815302550425,-0.15639490798826916
10.901816969494917,-0.1656000807930673
10.911818636439406,-0.18960678385285085
10.921820303383898,-0.18941685787422993
10.931821970328388,-0.2591133310293665
10.94182363727288,-0.17947212868997348
10.95182530421737,-0.19251345337584957
10.96182697116186,-0.16028456222794973
10.971828638106352,-0.1231425058514519
10.981830305050842,-0.13192930409558273
10.991831971995333,-0.17121493900139448
11.001833638939823,-0.12609610651836856
11.011835305884315,-0.2086970809581839
11.021836972828805,-0.19630655686318269
11.031838639773296,-0.14367531449048548
11.041840306717786,-0.15363181302975057
11.051841973662277,-0.16344524529495982
11.061843640606769,-0.19779072412199736
11.071845307551259,-0.12142530345699909
11.08184697449575,-0.16002853237507822
11.09184864144024,-0.1620125170481748
11.101850308384732,-0.18891794641473136
11.111851975329222,-0.1602003077120289
11.121853642273713,-0.1699879493666113
11.131855309218203,-0.19465757086664232
11.141856976162694,-0.187288819900472
11.151858643107184,-0.2299717367199545
11.161860310051676,-0.1719195857540387
11.171861976996166,-0.21999521449452203
11.181863643940657,-0.16936453406956614
11.191865310885149,-0.14167329073568016
11.201866977829638,-0.0560985068929028
11.21186864477413,-0.1914348366275062
11.22187031171862,-0.1838834244105312
11.231871978663111,-0.12746046749454237
11.241873645607601,-0.16654287704913973
11.251875312552093,-0.23372810350140702
11.261876979496583,-0.16676333508443797
11.271878646441074,-0.23430633496562472
11.281880313385564,-0.16132491634872176
11.291881980330055,-0.22372004791071123
11.301883647274547,-0.2772624168802393
11.311885314219037,-0.1817775654313043
11.321886981163528,-0.1924526244769068
11.331888648108018,-0.1670318347482273
11.34189031505251,-0.25054609332601163
11.351891981997,-0.1288035751073245
11.361893648941491,-0.2806128600690694
11.37189531588598,-0.160194816348402
11.381896982830472,-0.22441020698579056
11.391898649774962,-0.19886389692358444
11.401900316719454,-0.22890354479668634
11.411901983663945,-0.21909034048346357
11.421903650608435,-0.16273904713158996
11.431905317552927,-0.3973215472332384
11.441906984497416,0.36544200878966243
11.451908651441908,1.2718702596639582
11.461910318386398,-0.6509484578648136
11.47191198533089,-0.2859677491826868
11.481913652275379,-0.15023370074476927
11.49191531921987,-0.18543324231685684
11.50191698616436,-0.22542441991903
11.511918653108852,-0.25646363557505786
11.521920320053344,-0.24549189488103787
11.531921986997833,-0.2215632859300664
11.541923653942325,-0.3146031413401661
11.551925320886815,-0.23669570952940908
11.561926987831306,-0.21019745913266813
11.571928654775796,-0.28072656608304497
11.581930321720288,-0.18453510923595454
11.591931988664777,-0.19856796673489183
11.601933655609269,-0.1623941711956589
11.611935322553759,-0.18178310762634417
11.62193698949825,-0.2957566114346089
11.63193865644274,-0.18799505265963126
11.641940323387232,-0.2685542717464
11.651941990331723,-0.30422053185786047
11.661943657276213,-0.27825613874975313
11.671945324220705,-0.2243663887720552
11.681946991165194,-0.1817233132773637
11.691948658109686,-0.22616950632607383
11.701950325054176,-0.1875390047751267
11.711951991998667,-0.3284617264970266
11.721953658943157,-0.3065144440805279
11.731955325887649,-0.24518190136762102
11.741956992832138,-0.3834580322592274
11.75195865977663,-0.26501898557115605
11.761960326721121,-0.302768834106881
11.771961993665611,-0.34504290423281464
11.781963660610103,-0.21415716386274877
11.791965327554593,-0.24424898479509705
11.801966994499084,-0.2670588773363893
11.811968661443574,-0.3105367364742825
11.821970328388065,-0.2869823355281477
11.831971995332555,-0.2588018976759819
11.841973662277047,-0.21989523882164042
11.851975329221537,-0.23721107830640048
11.861976996166028,-0.3776885088757084
11.87197866311052,-0.287053346568153
11.88198033005501,-0.2869306148488275
11.891981996999501,-0.2354693357785293
11.90198366394399,-0.311408992265448
11.911985330888482,-0.2647094469144125
11.921986997832972,-0.30295504913916077
11.931988664777464,-0.272327542031312
11.941990331721954,-0.3039929244247957
11.951991998666445,-0.41982720371689386
11.961993665610935,-0.2300685821748655
11.971995332555426,-0.20204830201644508
11.981996999499916,-0.25312968673939745
11.991998666444408,-0.2782682851460974
12.0020003333889,-0.19362200514467554
12.01200200033339,-0.2731423047610266
12.02200366727788,-0.33969361028917444
12.03200533422237,-0.2623946264517877
12.042007001166862,-0.3076252383720726
12.052008668111352,-0.27630351238816103
12.062010335055843,-0.24468174999296172
12.072012002000333,-0.3815420739781288
12.082013668944825,-0.3236424396877567
12.092015335889315,-0.2909074526117199
12.102017002833806,-0.2039229172022734
12.112018669778298,-0.21808429492066203
12.122020336722787,-0.24049067499530774
12.132022003667279,-0.3669936740893767
12.142023670611769,-0.3434087418035831
12.15202533755626,-0.28456786240049237
12.16202700450075,-0.3093079324927705
12.172028671445242,-0.2913531040943007
12.182030338389731,-0.45681220550422774
12.192032005334223,0.16654704928026123
12.202033672278713,1.1443881335549206
12.212035339223204,-0.7337847766897629
12.222037006167696,-0.3334738582956155
12.232038673112186,-0.3058477465730574
12.242040340056677,-0.33958400950320516
12.252042007001167,-0.2704910148751479
12.262043673945659,-0.37991255338657215
12.272045340890148,-0.30356624559185963
12.28204700783464,-0.3630580821909329
12.29204867477913,-0.2869759749984443
12.302050341723621,-0.2639470670576215
12.312052008668111,-0.2933464345661063
12.322053675612603,-0.26734463153342114
12.332055342557092,-0.3450921905738356
12.342057009501584,-0.2992486677606687
12.352058676446076,-0.3748128938963696
12.362060343390565,-0.34740407557582703
12.372062010335057,-0.3795711446925243
12.382063677279547,-0.36964252549583093
12.392065344224038,-0.2847989733712002
12.402067011168528,-0.3301854119548822
12.41206867811302,-0.3830042375339676
12.42207034505751,-0.33239306097199084
12.432072012002001,-0.3634633255656913
12.44207367894649,-0.3941595561312995
12.452075345890982,-0.3700751732827455
12.462077012835474,-0.372633395178817
12.472078679779964,-0.3328003328634414
12.482080346724455,-0.3354094354427385
12.492082013668945,-0.3731329082932475
12.502083680613437,-0.39745638036408426
12.512085347557926,-0.3578283466423397
12.522087014502418,-0.4145174605828221
12.532088681446908,-0.33372666829812936
12.5420903483914,-0.3994819521810978
12.552092015335889,-0.33013025663170215
12.56209368228038,-0.3156588901027496
12.572095349224872,-0.35500988982735054
12.582097016169362,-0.2845448709238982
12.592098683113853,-0.36896852217522846
12.602100350058343,-0.3744014469023882
12.612102017002835,-0.3890642828066252
12.622103683947325,-0.3631529376714801
12.632105350891816,-0.40582448889613976
12.642107017836306,-0.4007226994774102
12.652108684780798,-0.37526228092684255
12.662110351725287,-0.37662212256638533
12.672112018669779,-0.3425893925528596
12.682113685614269,-0.3323491876930379
12.69211535255876,-0.27026107693755946
12.702117019503252,-0.37438235452759144
12.712118686447742,-0.3158738014868391
12.722120353392233,-0.3844112173158927
12.732122020336723,-0.41889024097592437
12.742123687281214,-0.4425794980641574
12.752125354225704,-0.4352853548392561
12.762127021170196,-0.31868620079093885
12.772128688114686,-0.4632418417388786
12.782130355059177,-0.3198501338126631
12.792132022003667,-0.35339568736310656
12.802133688948159,-0.36690561410769573
12.81213535589265,-0.3647816951015991
12.82213702283714,-0.3701356901318339
12.832138689781631,-0.39926831683233993
12.842140356726121,-0.41014275728928096
12.852142023670613,-0.3570657581794729
12.862143690615103,-0.4693318238872876
12.872145357559594,-0.5561113264887156
12.882147024504084,-0.3831491819932374
12.892148691448575,-0.41528971024132283
12.902150358393065,-0.393969911231762
12.912152025337557,-0.43638975496007065
12.922153692282048,-0.4314615823921184
12.932155359226538,-0.6034664968508545
12.94215702617103,0.13601778047480553
12.95215869311552,1.0899527610326558
12.962160360060011,-0.8282689381390251
12.9721620270045,-0.5791775137527466
12.982163693948992,-0.3611727636068454
12.992165360893482,-0.34153068376228946
13.002167027837974,-0.36684480410580106
13.012168694782464,-0.4585537377758522
13.022170361726955,-0.39887061245595296
13.032172028671445,-0.3672334257290805
13.042173695615936,-0.43491003753081164
13.052175362560428,-0.4160726133564484
13.062177029504918,-0.38628572910555353
13.07217869644941,-0.45602606324815703
13.0821803633939,-0.42570918035865196
13.09218203033839,-0.3862768164219913
13.10218369728288,-0.4859531026848305
13.112185364227372,-0.49913091005107013
13.122187031171862,-0.47666740326856316
13.132188698116353,-0.4150358177604288
13.142190365060843,-0.4104102955628374
13.152192032005335,-0.39871426191697246
13.162193698949826,-0.45773591142153663
13.172195365894316,-0.44561309905560864
13.182197032838808,-0.4266690115428174
13.192198699783297,-0.4721968249666204
13.202200366727789,-0.45778287109849264
13.212202033672279,-0.450547178155826
13.22220370061677,-0.35345787435923026
13.23220536756126,-0.470589720216812
13.242207034505752,-0.4488112257947754
13.252208701450241,-0.37678713399208175
13.262210368394733,-0.42684945644918304
13.272212035339225,-0.456310114990213
13.282213702283714,-0.4349824622332003
13.292215369228206,-0.36392911322878335
13.302217036172696,-0.4696962582220668
13.312218703117187,-0.4021349555091661
13.322220370061677,-0.4485289927472576
13.332222037006169,-0.3908314952163845
13.342223703950658,-0.4208780246388591
13.35222537089515,-0.5401195316858872
13.36222703783964,-0.39673878128340534
13.372228704784131,-0.4847402884277687
13.382230371728621,-0.49430571304415716
13.392232038673113,-0.3843533957334188
13.402233705617604,-0.4472973033678225
13.412235372562094,-0.3717780615608569
13.422237039506586,-0.4231435489532816
13.432238706451075,-0.43445548094730285
13.442240373395567,-0.48611543842688576
13.452242040340057,-0.4443203102223363
13.462243707284548,-0.4203707403795861
13.472245374229038,-0.49109358253192575
13.48224704117353,-0.369231587035876
13.49224870811802,-0.4227707613868154
13.502250375062511,-0.4503611947233383
13.512252042007002,-0.5132700570379513
13.522253708951492,-0.4335539251434289
13.532255375895984,-0.4200557150356779
13.542257042840474,-0.45838185863119507
13.552258709784965,-0.413119124608586
13.562260376729455,-0.46150179239126304
13.572262043673947,-0.4249233839490311
13.582263710618436,-0.4794386936250069
13.592265377562928,-0.4215155092068114
13.602267044507418,-0.4306235962005521
13.61226871145191,-0.5058708849985302
13.6222703783964,-0.40403373075406857
13.63227204534089,-0.5062258616540728
13.642273712285382,-0.4585273851728903
13.652275379229872,-0.40376620278687775
13.662277046174363,-0.41959405265360594
13.672278713118853,-0.48542019547824683
13.682280380063345,-0.5841808264377791
13.692282047007835,0.06872260443971409
13.702283713952326,1.0350750134260471
13.712285380896816,-0.7941199346641558
13.722287047841307,-0.5258181777124605
13.732288714785797,-0.44657896751699705
13.742290381730289,-0.48397500616889827
13.75229204867478,-0.4863541816341309
13.76229371561927,-0.5231220306541127
13.772295382563762,-0.5350464879823222
13.782297049508252,-0.4868913709234486
13.792298716452743,-0.4835801282612526
13.802300383397233,-0.5184695984471254
13.812302050341724,-0.48833446112318957
13.822303717286214,-0.47456574011845076
13.832305384230706,-0.5096581753551936
13.842307051175196,-0.521497780515878
13.852308718119687,-0.4247634750528981
13.862310385064179,-0.5187005575533892
13.872312052008668,-0.4993553924812803
13.88231371895316,-0.40930718845506747
13.89231538589765,-0.5524803189030659
13.902317052842141,-0.4629752669567558
13.912318719786631,-0.45043868814733906
13.922320386731123,-0.4968456217632699
13.932322053675612,-0.4723020674469218
13.942323720620104,-0.5403774235639364
13.952325387564594,-0.5151354377194998
13.962327054509085,-0.517396678241457
13.972328721453577,-0.5202582034102136
13.982330388398067,-0.45068185587528264
13.992332055342558,-0.4271769777192775
14.002333722287048,-0.4000024592368087
14.01233538923154,-0.457885281003322
14.02233705617603,-0.4225793281985448
14.032338723120521,-0.46089820869342923
14.04234039006501,-0.4960873511354975
14.052342057009502,-0.4217493634112923
14.062343723953992,-0.442792825825537
14.072345390898484,-0.4921612522707939
14.082347057842973,-0.39430090640106163
14.092348724787465,-0.4918772471824756
14.102350391731957,-0.47152322618340187
14.112352058676446,-0.43142915429805373
14.122353725620938,-0.4281658159090171
14.132355392565428,-0.4589084466247565
14.14235705950992,-0.45762771472489194
14.152358726454409,-0.4153919171859002
14.1623603933989,-0.5349489230395853
14.17236206034339,-0.5657874128923867
14.182363727287882,-0.5135282464097117
14.192365394232372,-0.4689649267219093
14.202367061176863,-0.44337544353116953
14.212368728121355,-0.4871407150366407
14.222370395065845,-0.48282674502209816
14.232372062010336,-0.5043897995696617
14.242373728954826,-0.547867957692729
14.252375395899318,-0.49949870454747486
14.262377062843807,-0.4568837807642977
14.272378729788299,-0.48487393385157773
14.282380396732789,-0.5395878147459996
14.29238206367728,-0.44155091585587947
14.30238373062177,-0.529526625925899
14.312385397566262,-0.5223280977368405
14.322387064510753,-0.45284878538109846
14.332388731455243,-0.46095714392667847
14.342390398399735,-0.59673239792128
14.352392065344224,-0.5650742731821158
14.362393732288716,-0.41996129009117644
14.372395399233206,-0.5317775453230846
14.382397066177697,-0.3815701856630236
14.392398733122187,-0.40432201207271545
14.402400400066679,-0.4640805773236385
14.412402067011168,-0.49099604571656924
14.42240373395566,-0.49196542251468833
14.432405400900151,-0.3998705445971915
14.442407067844641,-0.7195940521784558
14.452408734789133,0.0050858472269439126
14.462410401733623,1.0624725829795403
14.472412068678114,-0.871051949839598
14.482413735622604,-0.5934530032557445
14.492415402567095,-0.49492866759983645
14.502417069511585,-0.5510156818495258
14.512418736456077,-0.41356813579644824
14.522420403400567,-0.5042555728149387
14.532422070345058,-0.4849553943031658
14.542423737289548,-0.4825260680557485
14.55242540423404,-0.4744352707643774
14.562427071178531,-0.5187340118732359
14.57242873812302,-0.530614683766596
14.582430405067512,-0.4713203962760666
14.592432072012002,-0.40405711859087706
14.602433738956494,-0.4190803872428131
14.612435405900984,-0.4351031322702994
14.622437072845475,-0.48653182176912185
14.632438739789965,-0.46639487039369376
14.642440406734456,-0.5370377865967618
14.652442073678946,-0.45758167079153766
14.662443740623438,-0.3999371756414152
14.67244540756793,-0.5406527842150152
14.68244707451242,-0.4775162424519134
14.69244874145691,-0.5556792328021107
14.7024504084014,-0.5099785299771183
14.712452075345892,-0.6148932322190823
14.722453742290382,-0.5029614645204081
14.732455409234873,-0.5492042075231951
14.742457076179363,-0.49547944572731256
14.752458743123855,-0.5167972719971312
14.762460410068345,-0.6394506210730826
14.772462077012836,-0.5108100578036222
14.782463743957328,-0.4888189669650347
14.792465410901817,-0.5760059828606319
14.802467077846309,-0.4343610253810501
14.812468744790799,-0.514210780382728
14.82247041173529,-0.503698350009822
14.83247207867978,-0.37804502764147485
14.842473745624272,-0.41803713697615497
14.852475412568761,-0.4891613294940827
14.862477079513253,-0.4482343326705894
14.872478746457743,-0.5362560344806204
14.882480413402234,-0.5324298703094632
14.892482080346724,-0.5029899921991637
14.902483747291216,-0.41878926227559526
14.912485414235707,-0.5125299864707367
14.922487081180197,-0.4845484286243227
14.932488748124689,-0.4802889900631548
14.942490415069178,-0.4652637385609032
14.95249208201367,-0.48684147938071026
14.96249374895816,-0.5709372484594575
14.972495415902651,-0.4827344736691453
14.982497082847141,-0.5355482565029335
14.992498749791633,-0.48401068105451933
15.002500416736122,-0.6095313185592299
15.012502083680614,-0.5669420376986193
15.022503750625106,-0.46950700816819996
15.032505417569595,-0.4268097564503493
15.042507084514087,-0.45675738787835635
15.052508751458577,-0.5705980858181358
15.062510418403068,-0.4459386536189307
15.072512085347558,-0.4542485618313736
15.08251375229205,-0.5060324585555683
15.09251541923654,-0.587565242521051
15.102517086181031,-0.5107311858366919
15.11251875312552,-0.5595487433324193
15.122520420070012,-0.6088803892265775
15.132522087014504,-0.44001982759406383
15.142523753958994,-0.5110601977729475
15.152525420903485,-0.5399686834644
15.162527087847975,-0.4807564315605007
15.172528754792467,-0.4316526134334303
15.182530421736956,-0.5046568001416962
15.192532088681448,-0.5168803984196139
15.202533755625938,-0.6916891275496893
15.21253542257043,-0.005638299381702752
15.222537089514919,1.0069309108493396
15.23253875645941,-0.8915472680165281
15.2425404234039,-0.4957013072345354
15.252542090348392,-0.47946510963136646
15.262543757292883,-0.5859601531258951
15.272545424237373,-0.456193226038374
15.282547091181865,-0.479676525651874
15.292548758126355,-0.5058930044413992
15.302550425070846,-0.5414185392182193
15.312552092015336,-0.5150355143688768
15.322553758959828,-0.504638375611294
15.332555425904317,-0.41333394617064473
15.342557092848809,-0.571349635873999
15.352558759793299,-0.5612079865167201
15.36256042673779,-0.5490414001227452
15.372562093682282,-0.5003118907538039
15.382563760626772,-0.5934843910154108
15.392565427571263,-0.45606428246388636
15.402567094515753,-0.5744853272072851
15.412568761460244,-0.5564524809772
15.422570428404734,-0.4945779587714369
15.432572095349226,-0.5881848061363735
15.442573762293716,-0.4540144214085715
15.452575429238207,-0.47791760110215686
15.462577096182697,-0.5043804502497998
15.472578763127188,-0.46606206636177216
15.48258043007168,-0.5277552164463295
15.49258209701617,-0.4870582214609137
15.502583763960661,-0.5320476383973931
15.512585430905151,-0.39986517589296783
15.522587097849643,-0.4234056297567419
15.532588764794133,-0.4222901465038825
15.542590431738624,-0.4472688423845629
15.552592098683114,-0.5056536098893334
15.562593765627605,-0.4983100199021139
15.572595432572095,-0.43509477371112215
15.582597099516587,-0.5317507730028812
15.592598766461077,-0.42054285244664696
15.602600433405568,-0.43856323957320176
15.61260210035006,-0.5169891276470047
15.62260376729455,-0.42813278087045026
15.632605434239041,-0.4981567714555582
15.64260710118353,-0.4432012411767493
15.652608768128022,-0.4526835766700241
15.662610435072512,-0.4461842500361221
15.672612102017004,-0.5223006970371317
15.682613768961494,-0.46988962099552994
15.692615435905985,-0.4538465333357111
15.702617102850475,-0.45606984085615765
15.712618769794966,-0.5072286153863402
15.722620436739458,-0.4575223868340933
15.732622103683948,-0.5568539896503566
15.74262377062844,-0.6153155553109122
15.752625437572929,-0.41193087816311874
15.76262710451742,-0.4701615392402058
15.77262877146191,-0.459619650050823
15.782630438406402,-0.49870932636872717
15.792632105350892,-0.4733913340596003
15.802633772295383,-0.4829208461051515
15.812635439239873,-0.5980268998270923
15.822637106184365,-0.5092968749852452
15.832638773128856,-0.5122207937338287
15.842640440073346,-0.4444025574829312
15.852642107017838,-0.5540314527577347
15.862643773962327,-0.39999096988102356
15.872645440906819,-0.6139525033246663
15.882647107851309,-0.46902891622454496
15.8926487747958,-0.446212590427526
15.90265044174029,-0.5556739454263319
15.912652108684782,-0.4942888599257282
15.922653775629271,-0.5560330041879261
15.932655442573763,-0.50111510363916
15.942657109518253,-0.5667079879136744
15.952658776462744,-0.46972560343996045
15.962660443407236,-0.413261156756055
15.972662110351726,-0.7112643646259421
15.982663777296217,0.07034631612232388
15.992665444240707,1.1578299067852595
16.002667111185197,-0.8891386923263734
16.01266877812969,-0.6415450263282494
16.02267044507418,-0.4563648427129112
16.03267211201867,-0.5289790802541448
16.04267377896316,-0.5576766599623784
16.052675445907653,-0.5254162114668406
16.062677112852143,-0.5255151305761413
16.072678779796632,-0.3992638508535429
16.082680446741126,-0.508630418075026
16.092682113685616,-0.47560671125163906
16.102683780630105,-0.4185911439730669
16.112685447574595,-0.49764911272934054
16.12268711451909,-0.5403136886262082
16.132688781463578,-0.4760553668429641
16.142690448408068,-0.4425096504706487
16.152692115352558,-0.4806398924641212
16.16269378229705,-0.5017215909457471
16.17269544924154,-0.4487293596052252
16.18269711618603,-0.4633049211432948
16.192698783130524,-0.41664137722280625
16.202700450075014,-0.439343914548817
16.212702117019504,-0.5067495256990184
16.222703783963993,-0.45451326490924876
16.232705450908487,-0.49958584297322445
16.242707117852976,-0.4975870068732221
16.252708784797466,-0.5218753943984678
16.262710451741956,-0.4693760116293074
16.27271211868645,-0.4328448680577217
16.28271378563094,-0.4500213467397296
16.29271545257543,-0.5019868353909208
16.302717119519922,-0.44885603557839693
16.312718786464412,-0.4861639406485986
16.322720453408902,-0.4753193770026893
16.33272212035339,-0.4378151631024897
16.342723787297885,-0.38923543381039666
16.352725454242375,-0.508037355841463
16.362727121186865,-0.4917660088810729
16.372728788131354,-0.4023086062692504
16.382730455075848,-0.3958190211406591
16.392732122020337,-0.3907296521235949
16.402733788964827,-0.4226162347397295
16.41273545590932,-0.4805814839574599
16.42273712285381,-0.4364168021612525
16.4327387897983,-0.415542157066433
16.44274045674279,-0.5200864753831457
16.452742123687283,-0.4215235903076642
16.462743790631773,-0.3989585249063294
16.472745457576263,-0.4013913522664747
16.482747124520753,-0.46936217770619665
16.492748791465246,-0.40385777021643593
16.502750458409736,-0.41252903598861185
16.512752125354226,-0.3535408710045043
16.522753792298715,-0.4549684532812583
16.53275545924321,-0.4829965859862356
16.5427571261877,-0.45879451866732196
16.55275879313219,-0.46164266511894425
16.56276046007668,-0.46174667160044425
16.57276212702117,-0.4437192871231447
16.58276379396566,-0.45027316861664807
16.59276546091015,-0.4003647634017339
16.602767127854644,-0.5067352559115743
16.612768794799134,-0.44013748287522964
16.622770461743624,-0.38144869917324026
16.632772128688114,-0.44270634730666514
16.642773795632607,-0.529865722849489
16.652775462577097,-0.514734209677408
16.662777129521587,-0.41939833789886144
16.67277879646608,-0.43979866823537866
16.68278046341057,-0.4966007450250559
16.69278213035506,-0.41244734524779164
16.70278379729955,-0.45467982959411557
16.712785464244043,-0.5213473928965008
16.722787131188532,-0.37470985938093027
16.732788798133022,-0.5257643665013596
16.742790465077512,-0.4704855436030958
16.752792132022005,-0.4167897597793624
16.762793798966495,-0.6556940407440558
16.772795465910985,0.015366660404931981
16.782797132855478,1.1275628720324848
16.792798799799968,-0.8033545308845789
16.802800466744458,-0.5362998138328766
16.812802133688947,-0.4250734164704284
16.82280380063344,-0.4037487207618587
16.83280546757793,-0.4136740052445099
16.84280713452242,-0.44166501384960416
16.85280880146691,-0.49268092556328047
16.862810468411404,-0.4488525396020305
16.872812135355893,-0.3482578756019709
16.882813802300383,-0.4552146111140116
16.892815469244876,-0.35119890873331633
16.902817136189366,-0.4571275655221049
16.912818803133856,-0.46417473447948615
16.922820470078346,-0.40616818028617957
16.93282213702284,-0.3657796668821324
16.94282380396733,-0.4214625843890395
16.95282547091182,-0.43834095055408967
16.96282713785631,-0.402371385922171
16.972828804800802,-0.4254939958663464
16.98283047174529,-0.4896895349786796
16.99283213868978,-0.37575782145350817
17.002833805634275,-0.3637578295912587
17.012835472578764,-0.4278523077705479
17.022837139523254,-0.4272789570368927
17.032838806467744,-0.43547747232049305
17.042840473412237,-0.4656418929675477
17.052842140356727,-0.3512257427261261
17.062843807301217,-0.4167725165859655
17.072845474245707,-0.38393763427561794
17.0828471411902,-0.34128427955481405
17.09284880813469,-0.4457096204122666
17.10285047507918,-0.4645830954793123
17.112852142023673,-0.3618916333666256
17.122853808968163,-0.42306256484872
17.132855475912653,-0.39999728564404896
17.142857142857142,-0.4425773257167604
17.152858809801636,-0.37095976198933844
17.162860476746125,-0.34324998815079694
17.172862143690615,-0.32623703572088747
17.182863810635105,-0.48385140790388614
17.1928654775796,-0.3489293019508765
17.202867144524088,-0.43252897929296186
17.212868811468578,-0.44858243315295604
17.222870478413068,-0.33667497581011624
17.23287214535756,-0.31513544232294277
17.24287381230205,-0.4337574145423361
17.25287547924654,-0.3511242468311319
17.262877146191034,-0.3449533267905707
17.272878813135524,-0.37708622208063824
17.282880480080014,-0.3959603705589421
17.292882147024503,-0.37003792441667577
17.302883813968997,-0.343830958129241
17.312885480913486,-0.32710415194189213
17.322887147857976,-0.2652038263455194
17.332888814802466,-0.42153740230094444
17.34289048174696,-0.3042669955154691
17.35289214869145,-0.4177580193224455
17.36289381563594,-0.42051978701961273
17.372895482580432,-0.28108432777879866
17.382897149524922,-0.40344496475124525
17.392898816469412,-0.34578871968423003
17.4029004834139,-0.33724986675453916
17.412902150358395,-0.3445254397452897
17.422903817302885,-0.3448486069066494
17.432905484247375,-0.3801856244535989
17.442907151191864,-0.38306931733723704
17.452908818136358,-0.42177715138897703
17.462910485080847,-0.3045620869999665
17.472912152025337,-0.31690143980921537
17.48291381896983,-0.2683517792075919
17.49291548591432,-0.3806445294230378
17.50291715285881,-0.39543258659993846
17.5129188198033,-0.3477811708556289
17.522920486747793,-0.3986696677410593
17.532922153692283,-0.3526101093827191
17.542923820636773,-0.4104776192811598
17.552925487581263,-0.46767301527160576
17.562927154525756,-0.4955883386432989
17.572928821470246,0.13947851846385573
17.582930488414735,1.1501874898407072
17.59293215535923,-0.7441867973521257
17.60293382230372,-0.4371348516614635
17.61293548924821,-0.30300827524177787
17.622937156192698,-0.3140837244681596
17.63293882313719,-0.2926308656461034
17.64294049008168,-0.3862037745388867
17.65294215702617,-0.28215255570745157
17.66294382397066,-0.25603298896486815
17.672945490915154,-0.29996713655132
17.682947157859644,-0.3506150559410802
17.692948824804134,-0.38880461527317406
17.702950491748627,-0.3822183987649688
17.712952158693117,-0.32216793633331525
17.722953825637607,-0.33722846213237984
17.732955492582096,-0.33657316798022335
17.74295715952659,-0.32691240358116236
17.75295882647108,-0.23201745143172142
17.76296049341557,-0.3543274074803817
17.77296216036006,-0.2536350832520948
17.782963827304552,-0.2656119751495699
17.792965494249042,-0.4154651120601103
17.802967161193532,-0.2834153092152623
17.812968828138025,-0.32393772907120655
17.822970495082515,-0.2424698710760504
17.832972162027005,-0.39143253150193147
17.842973828971495,-0.30597996200512123
17.852975495915988,-0.30470280649375137
17.862977162860478,-0.33767504071287446
17.872978829804968,-0.24840342379031397
17.882980496749457,-0.30684282152563985
17.89298216369395,-0.3491060578974663
17.90298383063844,-0.29428394313917683
17.91298549758293,-0.24777780694028412
17.92298716452742,-0.32583373140431127
17.932988831471913,-0.33531362803532094
17.942990498416403,-0.33505133030474754
17.952992165360893,-0.23542781431678658
17.962993832305386,-0.2527132806369248
17.972995499249876,-0.34462348040759283
17.982997166194366,-0.2894493973972185
17.992998833138856,-0.2934609380517765
18.00300050008335,-0.3196341857957355
18.01300216702784,-0.31739353899815753
18.02300383397233,-0.2783958580004941
18.03300550091682,-0.137168547243544
18.04300716786131,-0.2803743292269608
18.0530088348058,-0.3213563214229549
18.06301050175029,-0.3504877821928022
18.073012168694785,-0.23730830549455517
18.083013835639274,-0.2721532616666241
18.093015502583764,-0.343929127112807
18.103017169528254,-0.26484663335218495
18.113018836472747,-0.2776712580612642
18.123020503417237,-0.23605548646498128
18.133022170361727,-0.3170893283974479
18.143023837306217,-0.29683370896997197
18.15302550425071,-0.3819400859754627
18.1630271711952,-0.21959190822042376
18.17302883813969,-0.22001435147598808
18.183030505084183,-0.26590822938844694
18.193032172028673,-0.2721701023967663
18.203033838973163,-0.2877323465167806
18.213035505917652,-0.27607775457354705
18.223037172862146,-0.26668470268081507
18.233038839806635,-0.34093833966648557
18.243040506751125,-0.30092345882995997
18.253042173695615,-0.2352235348701786
18.26304384064011,-0.23353726060027558
18.273045507584598,-0.1764428604180862
18.283047174529088,-0.3343220883785735
18.29304884147358,-0.26341152198320483
18.30305050841807,-0.1951930643762498
18.31305217536256,-0.2951360148412204
18.32305384230705,-0.20303482821093738
18.333055509251544,-0.279699242675719
18.343057176196034,-0.22247793587061476
18.353058843140523,-0.2080502901955256
18.363060510085013,-0.21789422774174766
18.373062177029507,-0.21896068831452828
18.383063843973996,-0.4544264018294403
18.393065510918486,0.26637821983080784
18.40306717786298,1.2330619765314819
18.41306884480747,-0.6211399987638092
18.42307051175196,-0.2905160002277481
18.43307217869645,-0.20284524262379844
18.443073845640942,-0.33186732268922114
18.453075512585432,-0.20323289024657545
18.463077179529922,-0.20899538542256293
18.47307884647441,-0.22036310665552217
18.483080513418905,-0.21026004261265302
18.493082180363395,-0.27691121428879606
18.503083847307884,-0.12784693874275388
18.513085514252378,-0.2169581407079444
18.523087181196868,-0.23826926022613518
18.533088848141357,-0.20458337668169047
18.543090515085847,-0.20163303186287074
18.55309218203034,-0.14956839023687252
18.56309384897483,-0.2277178283096475
18.57309551591932,-0.19984359356839074
18.58309718286381,-0.26890258047268334
18.593098849808303,-0.2691986114339347
18.603100516752793,-0.207305607733083
18.613102183697283,-0.2787336851447856
18.623103850641776,-0.13674479713401638
18.633105517586266,-0.10041276086440039
18.643107184530756,-0.16755541417710174
18.653108851475245,-0.22820596834926998
18.66311051841974,-0.21399259470014995
18.67311218536423,-0.26070829642357307
18.68311385230872,-0.1033894434685605
18.693115519253208,-0.19191241440645368
18.7031171861977,-0.273034307623324
18.71311885314219,-0.0847097916080138
18.72312052008668,-0.22924827897656633
18.73312218703117,-0.21102340339666106
18.743123853975664,-0.22260300645310074
18.753125520920154,-0.21231432924413862
18.763127187864644,-0.16759899273987322
18.773128854809137,-0.14622430315207205
18.783130521753627,-0.14657030928824738
18.793132188698117,-0.24875185326563698
18.803133855642606,-0.1879711884072366
18.8131355225871,-0.214660275624252
18.82313718953159,-0.18455904344409102
18.83313885647608,-0.12228856600139024
18.84314052342057,-0.22043985067096955
18.853142190365062,-0.12167214065189205
18.863143857309552,-0.23178801087592613
18.873145524254042,-0.2489878718893681
18.883147191198535,-0.13106350899517943
18.893148858143025,-0.22396844527396645
18.903150525087515,-0.16652929450198412
18.913152192032005,-0.18227433811126006
18.923153858976498,-0.20703226551823967
18.933155525920988,-0.21504156103597982
18.943157192865478,-0.15743980004917665
18.953158859809967,-0.16468494738068223
18.96316052675446,-0.16257327261310855
18.97316219369895,-0.1773798892708444
18.98316386064344,-0.174783149030429
18.993165527587934,-0.25241421588399404
19.003167194532423,-0.11377970365922133
19.013168861476913,-0.09061955117513243
19.023170528421403,-0.16149745655722128
19.033172195365896,-0.10775053089253313
19.043173862310386,-0.13270965014611596
19.053175529254876,-0.1378248220909528
19.063177196199366,-0.07524791118212601
19.07317886314386,-0.1963606521723142
19.08318053008835,-0.14884083113634253
19.09318219703284,-0.07791924833749102
19.103183863977332,-0.0701545708281533
19.11318553092182,-0.1474300870192377
19.12318719786631,-0.037325670790775936
19.1331888648108,-0.2182485974525886
19.143190531755295,-0.14285688085143586
19.153192198699784,-0.22918745279835323
19.163193865644274,-0.041762485008702846
19.173195532588764,-0.09065453188832145
19.183197199533257,-0.18800476832932278
19.193198866477747,-0.16362367500728692
19.203200533422237,-0.12043909770541511
19.21320220036673,-0.199540693582037
19.22320386731122,-0.23633018018788532
19.23320553425571,0.4092799826715872
19.2432072012002,1.3281304035299417
19.253208868144693,-0.4637704718640036
19.263210535089183,-0.06019995227248767
19.273212202033672,-0.12224047479598205
19.283213868978162,-0.11626746069274586
19.293215535922656,-0.09681254502369867
19.303217202867145,-0.07498139015527586
19.313218869811635,-0.1240493365505277
19.32322053675613,-0.08157385098321099
19.33322220370062,-0.12127239911907887
19.343223870645108,-0.1649139963503452
19.353225537589598,-0.04139382973106434
19.36322720453409,-0.08697862340070407
19.37322887147858,-0.05395454479704853
19.38323053842307,-0.07739022706498032
19.39323220536756,-0.18040849180682775
19.403233872312054,-0.0908210095328606
19.413235539256544,-0.14844462121714636
19.423237206201033,0.01747427634826916
19.433238873145523,-0.07709315153182869
19.443240540090017,-0.0893138573500972
19.453242207034506,-0.13922262867906682
19.463243873978996,-0.06810405245870117
19.47324554092349,-0.03355125908951136
19.48324720786798,-0.06454613435274922
19.49324887481247,-0.03754954516941686
19.50325054175696,-0.15125143415160408
19.513252208701452,-0.07738862675144523
19.523253875645942,-0.0627178234399483
19.53325554259043,-0.11344227158481668
19.54325720953492,-0.14257253693439953
19.553258876479415,-0.08531471589154212
19.563260543423905,-0.09620816273261712
19.573262210368394,-0.03707626679427428
19.583263877312888,-0.016709862864112815
19.593265544257378,-0.010940147192135118
19.603267211201867,-0.11585970020688732
19.613268878146357,-0.024096434751281322
19.62327054509085,-0.09729023955321459
19.63327221203534,-0.08813249431200931
19.64327387897983,-0.007133521719718372
19.65327554592432,0.0877203082598016
19.663277212868813,0.061721633961274044
19.673278879813303,0.020678912594755093
19.683280546757793,-0.05597357107590809
19.693282213702286,-0.022300745365192817
19.703283880646776,-0.010585809322970575
19.713285547591266,-0.007964953029404385
19.723287214535755,-0.0816955407959153
19.73328888148025,-0.0652764814587192
19.74329054842474,-0.08199639952008472
19.75329221536923,0.0016719550721653528
19.763293882313718,-0.023555118546030145
19.77329554925821,-0.06706995915523198
19.7832972162027,0.022975880076825758
19.79329888314719,-0.0662667893900284
19.803300550091684,0.0032663829701367886
19.813302217036174,-0.09708194030208304
19.823303883980664,-0.029941161930589787
19.833305550925154,-0.03660229409488827
19.843307217869647,-0.07292685645699935
19.853308884814137,-0.0207481315095123
19.863310551758627,0.09408301447292718
19.873312218703116,0.03404851438966007
19.88331388564761,-0.05865417582288353
19.8933155525921,-0.012387482453208795
19.90331721953659,0.007059200574041207
19.913318886481083,0.11806811195942749
19.923320553425572,-0.015210980355540117
19.933322220370062,-0.05097455571436382
19.943323887314552,0.0482124365184268
19.953325554259045,-0.012269737478170388
19.963327221203535,-0.046592942436936374
19.973328888148025,0.04943126689402705
19.983330555092515,0.07436940209866702
19.993332222037008,0.013193461959402483
20.003333888981498,0.0478501356039627
20.013335555925988,-0.060119072059435535
20.02333722287048,-0.06659715282282676
20.03333888981497,0.059783201761707754
20.04334055675946,0.002438889765369716
20.05334222370395,0.04714837185934555
20.063343890648444,0.006970535647292367
20.073345557592933,0.07834058013634626
20.083347224537423,0.041866812345246404
20.093348891481913,0.08587769053982865
20.103350558426406,-0.1550008029496872
20.113352225370896,0.48217473481332246
20.123353892315386,1.5915461810367628
20.133355559259876,-0.29602166490489074
20.14335722620437,-0.11723094583211177
20.15335889314886,0.07013996171847932
20.16336056009335,0.04549050872596548
20.173362227037842,0.02938138446609464
20.18336389398233,0.11722710361903112
20.19336556092682,0.06600851711170946
20.20336722787131,-0.01850381277492555
20.213368894815805,-0.02507773600062002
20.223370561760294,0.0040657642865015615
20.233372228704784,0.04201877464671315
20.243373895649274,0.04550234268534411
20.253375562593767,0.028645046703953958
20.263377229538257,0.05569281800213592
20.273378896482747,0.09175737325922814
20.28338056342724,0.04488200241918857
20.29338223037173,0.04801434070516451
20.30338389731622,0.10210673964467797
20.31338556426071,0.0787441274570377
20.323387231205203,0.0026676610369391895
20.333388898149693,0.06105098742565701
20.343390565094182,0.02143677470314915
20.353392232038672,0.04530073148892446
20.363393898983166,0.07238051558337702
20.373395565927655,0.005020058856386456
20.383397232872145,0.05378340220828184
20.39339889981664,0.11750414430327183
20.40340056676113,0.028647759644448184
20.413402233705618,0.0831652982066991
20.423403900650108,0.007062581917334637
20.4334055675946,0.039128363797596905
20.44340723453909,0.06494092868604022
20.45340890148358,0.07770737991870515
20.46341056842807,0.028065635091085478
20.473412235372564,0.08626281324548266
20.483413902317054,0.12929598857514926
20.493415569261543,0.19219092264737395
20.503417236206037,0.026863328243608126
20.513418903150527,-0.0011477097301742512
20.523420570095016,0.0021174856438162526
20.533422237039506,0.13108588045921715
20.543423903984,0.09904828047683045
20.55342557092849,0.2027662999950977
20.56342723787298,0.13716157392516407
20.57342890481747,0.10135448335792663
20.583430571761962,0.1938471535555471
20.593432238706452,0.029854706312850657
20.60343390565094,0.07573017416622144
20.613435572595435,0.10245276608410205
20.623437239539925,0.1595649225037561
20.633438906484415,0.05237403348473749
20.643440573428904,-0.028677459199094327
20.653442240373398,0.10047230340549883
20.663443907317887,0.13692743113661093
20.673445574262377,0.11493410820917277
20.683447241206867,0.1488407783784116
20.69344890815136,0.1592973850207453
20.70345057509585,0.019298298296861513
20.71345224204034,0.12720129785205123
20.723453908984833,0.0907850155181484
20.733455575929323,0.1745757636885888
20.743457242873813,0.1474331917383052
20.753458909818303,0.16295400243668207
20.763460576762796,0.08753798145596224
20.773462243707286,0.05437481568989963
20.783463910651776,0.09965299315090977
20.793465577596265,0.05954755810529616
20.80346724454076,0.04471048019267698
20.81346891148525,0.13223288535512925
20.82347057842974,0.13106223123022184
20.83347224537423,0.15701577354849006
20.84347391231872,0.04845311230867602
20.85347557926321,0.1624796245688439
20.8634772462077,0.028376787246264953
20.873478913152194,0.1632187960531712
20.883480580096684,0.1874629039266466
20.893482247041174,0.10488507563592486
20.903483913985664,0.16123345910489423
20.913485580930157,0.1779056146492115
20.923487247874647,0.20201307090853968
20.933488914819137,0.16969516575184013
20.943490581763626,0.13264724133828446
20.95349224870812,0.07957197637395279
20.96349391565261,0.1314638615573926
20.9734955825971,0.08062402855055269
20.983497249541593,0.14666278400233082
20.993498916486082,0.15900741111289904
21.003500583430572,0.11587979594712461
21.013502250375062,-0.0702728215366786
21.023503917319555,0.6871477449236917
21.033505584264045,1.6940246238496377
21.043507251208535,-0.2163143844923714
21.053508918153025,0.06937178916163253
21.063510585097518,0.1291557605159787
21.073512252042008,0.23345494715060766
21.083513918986498,0.10847820326179514
21.09351558593099,0.14785296546197052
21.10351725287548,0.1423165475628353
21.11351891981997,0.17943602863103741
21.12352058676446,0.09709686686318211
21.133522253708954,0.17886985990163373
21.143523920653443,0.15452938049587625
21.153525587597933,0.2777307749189827
21.163527254542423,0.1468565518552391
21.173528921486916,0.11506183164154389
21.183530588431406,0.20714474563072915
21.193532255375896,0.1932019310359083
21.20353392232039,0.24938652714627063
21.21353558926488,0.19469134509403435
21.22353725620937,0.2142667504655135
21.23353892315386,0.18246550033759454
21.243540590098352,0.2589770160318457
21.25354225704284,0.2625072655424157
21.26354392398733,0.2605205409181047
21.27354559093182,0.189447491806838
21.283547257876315,0.17539408876193258
21.293548924820804,0.2561265277264887
21.303550591765294,0.17891360117632985
21.313552258709787,0.11277294263075524
21.323553925654277,0.2014111520298191
21.333555592598767,0.24232113537916045
21.343557259543257,0.143973157903221
21.35355892648775,0.17498671012307743
21.36356059343224,0.20017902980148933
21.37356226037673,0.25273889039747
21.38356392732122,0.2644916878934588
21.393565594265713,0.26173998094784684
21.403567261210203,0.2784054415694621
21.413568928154692,0.30921556487887475
21.423570595099186,0.11522534109746774
21.433572262043675,0.2170072716185195
21.443573928988165,0.2858327981804938
21.453575595932655,0.24370131634758302
21.46357726287715,0.21069071259135846
21.473578929821638,0.2896415735843651
21.483580596766128,0.19844611616883243
21.493582263710618,0.28915354925572867
21.50358393065511,0.2503718952303129
21.5135855975996,0.2860050740483324
21.52358726454409,0.2562427008286976
21.533588931488584,0.22939901958857165
21.543590598433074,0.225605674390543
21.553592265377564,0.22720816152107276
21.563593932322053,0.23563856933700683
21.573595599266547,0.19359204489978465
21.583597266211036,0.21552286488578348
21.593598933155526,0.2130478695043488
21.603600600100016,0.21820836719660042
21.61360226704451,0.2839150661035973
21.623603933989,0.2554157966403646
21.63360560093349,0.3359619031920142
21.64360726787798,0.2682805451172596
21.653608934822472,0.21237890893589279
21.663610601766962,0.28751493768459846
21.67361226871145,0.22132739088336578
21.683613935655945,0.3224803211573207
21.693615602600435,0.24183393226047734
21.703617269544925,0.28207887086706707
21.713618936489414,0.2859478072181535
21.723620603433908,0.20530375982225468
21.733622270378397,0.18857014303182365
21.743623937322887,0.24165687888841092
21.753625604267377,0.3045516664457552
21.76362727121187,0.3045822483093017
21.77362893815636,0.2863293054574366
21.78363060510085,0.321741706602823
21.793632272045343,0.2957932113096056
21.803633938989833,0.33404154606874603
21.813635605934323,0.3406959849682486
21.823637272878813,0.28733795063387113
21.833638939823306,0.2631265878202277
21.843640606767796,0.3059505500657218
21.853642273712286,0.32462423847392746
21.863643940656775,0.3451257291109517
21.87364560760127,0.2510346477987375
21.88364727454576,0.24711942319297323
21.893648941490248,0.28944511291705083
21.90365060843474,0.322263558279836
21.91365227537923,0.28350672234557117
21.92365394232372,0.2934767064763373
21.93365560926821,0.19692587618914445
21.943657276212704,0.3537776669593267
21.953658943157194,0.41893109553860686
21.963660610101684,0.2512921360529972
21.973662277046174,0.13831309173218526
21.983663943990667,0.8884008564451533
21.993665610935157,1.8359734515907384
22.003667277879646,-0.11428552163461786
22.01366894482414,0.19502213191099335
22.02367061176863,0.4121819456016458
22.03367227871312,0.23820127365673247
22.04367394565761,0.2895402187807063
22.053675612602103,0.42116026575838295
22.063677279546592,0.31007652580524986
22.073678946491082,0.3229065262379452
22.083680613435572,0.25635226417885937
22.093682280380065,0.2755885881438501
22.103683947324555,0.3253522567992492
22.113685614269045,0.33018946798833015
22.123687281213538,0.2656719387378842
22.133688948158028,0.4038182771148739
22.143690615102518,0.3961257678852643
22.153692282047007,0.35515138639211413
22.1636939489915,0.31754303551922025
22.17369561593599,0.3770443476184878
22.18369728288048,0.2637484596164611
22.19369894982497,0.2901514943512533
22.203700616769463,0.34081978684281145
22.213702283713953,0.28567394966562776
22.223703950658443,0.2725819615184835
22.233705617602936,0.2694270202177283
22.243707284547426,0.2969687049749964
22.253708951491916,0.34315761356951113
22.263710618436406,0.27412646341582136
22.2737122853809,0.33308896157702517
22.28371395232539,0.3358158328310166
22.29371561926988,0.41325525906836036
22.30371728621437,0.30278451051981853
22.313718953158862,0.30525560187098033
22.32372062010335,0.2820278426395763
22.33372228704784,0.3576933000882248
22.34372395399233,0.3584035719060683
22.353725620936824,0.3256853541151941
22.363727287881314,0.40014512802666485
22.373728954825804,0.3761124359763442
22.383730621770297,0.24381593079522085
22.393732288714787,0.38599785169192224
22.403733955659277,0.29344780312743934
22.413735622603767,0.2828060079167242
22.42373728954826,0.3576688962297136
22.43373895649275,0.37692265660991636
22.44374062343724,0.30178807251085704
22.45374229038173,0.3459550224052401
22.463743957326223,0.3528657437541302
22.473745624270713,0.30178214605211834
22.483747291215202,0.29538640382881287
22.493748958159696,0.3573010461074931
22.503750625104185,0.3919922399501403
22.513752292048675,0.3088796649662186
22.523753958993165,0.3019549982345311
22.53375562593766,0.3051379775198986
22.543757292882148,0.27056443428532084
22.553758959826638,0.3133030838413095
22.563760626771128,0.28922341188756834
22.57376229371562,0.4095329763500901
22.58376396066011,0.4235039258684775
22.5937656276046,0.3293478195861615
22.603767294549094,0.32507990586709073
22.613768961493584,0.2773754504781272
22.623770628438074,0.33813505183443743
22.633772295382563,0.3235804763780349
22.643773962327057,0.29062248550499
22.653775629271546,0.3849016592093145
22.663777296216036,0.42534905162146625
22.673778963160526,0.3886535464305023
22.68378063010502,0.4035003656564702
22.69378229704951,0.38422031602096823
22.703783963994,0.3065223420837334
22.713785630938492,0.37003090216844575
22.723787297882982,0.42328411204016364
22.733788964827472,0.3859909438703917
22.74379063177196,0.3856633625648717
22.753792298716455,0.348302092580159
22.763793965660945,0.2841843373611135
22.773795632605434,0.4515542038029504
22.783797299549924,0.3395486282281333
22.793798966494418,0.350715059156269
22.803800633438907,0.3288984340105152
22.813802300383397,0.4668179853900746
22.82380396732789,0.40171359714028126
22.83380563427238,0.3985930939969244
22.84380730121687,0.35463233055606935
22.85380896816136,0.3332398821560467
22.863810635105853,0.3372961949177641
22.873812302050343,0.32988430394067936
22.883813968994833,0.38839962531148176
22.893815635939323,0.4885909863020147
22.903817302883816,0.3404858984341845
22.913818969828306,0.375491565774044
22.923820636772795,0.36852037491780815
22.93382230371729,0.478863781416573
22.94382397066178,0.3156151844864665
22.95382563760627,0.4171876013511119
22.963827304550758,0.41915145772459017
22.97382897149525,0.3677099936454937
22.98383063843974,0.24576541235929442
22.99383230538423,0.8670530541345717
23.00383397232872,1.915819880639018
23.013835639273214,0.07064728520938988
23.023837306217704,0.3502343456542815
23.033838973162194,0.40148690952549965
23.043840640106687,0.47359991495109754
23.053842307051177,0.40922636839427967
23.063843973995667,0.40069678733849945
23.073845640940156,0.40895824962319227
23.08384730788465,0.40237258615748295
23.09384897482914,0.4360203579179812
23.10385064177363,0.39023014838445985
23.11385230871812,0.4029817837477025
23.123853975662612,0.47667358753889344
23.133855642607102,0.4470987819703126
23.143857309551592,0.34792590673224644
23.153858976496082,0.39733505753072573
23.163860643440575,0.41615416562132773
23.173862310385065,0.4352528890578027
23.183863977329555,0.3668281176832193
23.193865644274048,0.5449091794549542
23.203867311218538,0.4108076637143585
23.213868978163028,0.4087922748022138
23.223870645107517,0.44124669845635806
23.23387231205201,0.44713610090621686
23.2438739789965,0.3653079916336874
23.25387564594099,0.3860732815291926
23.26387731288548,0.5261318412065021
23.273878979829973,0.5099629680307656
23.283880646774463,0.3864428701960807
23.293882313718953,0.3953798065989164
23.303883980663446,0.49328072851898824
23.313885647607936,0.47684440953690604
23.323887314552426,0.46292427610337866
23.333888981496916,0.41229719162844636
23.34389064844141,0.3197543679455882
23.3538923153859,0.43794888250433667
23.36389398233039,0.42197368088969456
23.37389564927488,0.4567859040030788
23.38389731621937,0.4180772543457062
23.39389898316386,0.41771144056320286
23.40390065010835,0.40338388877430587
23.413902317052845,0.4636575598477669
23.423903983997334,0.3890206760894914
23.433905650941824,0.4343588683788929
23.443907317886314,0.48150583614912773
23.453908984830807,0.4257160045527259
23.463910651775297,0.3614781363041649
23.473912318719787,0.49209147409657417
23.483913985664277,0.47459832418726855
23.49391565260877,0.3895750127971005
23.50391731955326,0.4716722044372839
23.51391898649775,0.44857254078768677
23.523920653442243,0.4749765363891636
23.533922320386733,0.5161039770274518
23.543923987331222,0.40094962355279734
23.553925654275712,0.4662221720301829
23.563927321220206,0.46661776580248093
23.573928988164695,0.5128125943356786
23.583930655109185,0.4836093097588945
23.593932322053675,0.4020211667050778
23.60393398899817,0.38838724744499464
23.613935655942658,0.49677306181313596
23.623937322887148,0.3703515105471905
23.63393898983164,0.4607766420606693
23.64394065677613,0.4191753227978421
23.65394232372062,0.4383050209356936
23.66394399066511,0.5029472401497759
23.673945657609604,0.4686739192649488
23.683947324554094,0.39752800547806855
23.693948991498583,0.5045923765301745
23.703950658443073,0.47650902150574614
23.713952325387567,0.41767590650086794
23.723953992332056,0.5812618054166524
23.733955659276546,0.4740646022732348
23.74395732622104,0.3938185655086065
23.75395899316553,0.42580749426408593
23.76396066011002,0.5141013866504742
23.77396232705451,0.44068459616948935
23.783963993999002,0.46834740529502633
23.793965660943492,0.39605899079131024
23.80396732788798,0.5599000770354734
23.81396899483247,0.4171729159328581
23.823970661776965,0.5018952339533133
23.833972328721455,0.5145539284331717
23.843973995665944,0.47261409689328204
23.853975662610434,0.43816386237556215
23.863977329554928,0.468340462734657
23.873978996499417,0.39613551187233026
23.883980663443907,0.46232545323369945
23.8939823303884,0.38716338911244697
23.90398399733289,0.37641031121909896
23.91398566427738,0.40368097856741464
23.92398733122187,0.40713020222056645
23.933988998166363,0.40425454528850513
23.943990665110853,0.40916051238170503
23.953992332055343,0.4990086556392063
23.963993998999833,0.4526816106444417
23.973995665944326,0.4097177542518698
23.983997332888816,0.577794062924962
23.993998999833305,0.38229929759646175
24.0040006667778,0.3803338791355268
24.01400233372229,0.42823376727414003
24.02400400066678,0.4955873007623659
24.034005667611268,0.4618014585849986
24.04400733455576,0.42415589970732204
24.05400900150025,0.4718885496921657
24.06401066844474,0.24549014297723143
24.07401233538923,0.9184727145657468
24.084014002333724,1.9329339910516992
24.094015669278214,0.05254909518094682
24.104017336222704,0.4402833902597928
24.114019003167197,0.5169072352773648
24.124020670111687,0.47423952746579773
24.134022337056177,0.4786313785626296
24.144024004000666,0.52152882083917
24.15402567094516,0.47840114367652486
24.16402733788965,0.4203335106326523
24.17402900483414,0.44411234274526995
24.18403067177863,0.39461585380491687
24.194032338723122,0.4172598182466924
24.204034005667612,0.5061975478239973
24.214035672612102,0.4942501304376411
24.224037339556595,0.4417191079065279
24.234039006501085,0.47089372873469276
24.244040673445575,0.519706520870024
24.254042340390065,0.5280864722307618
24.264044007334558,0.5292774687763918
24.274045674279048,0.5293376242342906
24.284047341223538,0.4374892267211526
24.294049008168027,0.5226276337654455
24.30405067511252,0.4686809351215674
24.31405234205701,0.44089239981666584
24.3240540090015,0.5488733774017732
24.334055675945994,0.5369800490559201
24.344057342890483,0.45996120775856353
24.354059009834973,0.5708524007313722
24.364060676779463,0.45326371729997084
24.374062343723956,0.5655695219017982
24.384064010668446,0.5115346892513383
24.394065677612936,0.5449613745624937
24.404067344557426,0.4915414289185388
24.41406901150192,0.5594039263334457
24.42407067844641,0.5142300228888597
24.4340723453909,0.4992270877156358
24.444074012335392,0.4741261733838297
24.45407567927988,0.5304932383364449
24.46407734622437,0.49483712439645994
24.47407901316886,0.4173927461471511
24.484080680113355,0.5692152031843027
24.494082347057844,0.5220594225619887
24.504084014002334,0.5291804579985236
24.514085680946824,0.4728256006830402
24.524087347891317,0.47403883573263755
24.534089014835807,0.475650568931123
24.544090681780297,0.5549242870555556
24.554092348724787,0.3974646881393582
24.56409401566928,0.45816589669934815
24.57409568261377,0.4935260144742923
24.58409734955826,0.41628361473170017
24.594099016502753,0.4850265952598338
24.604100683447243,0.43458512743616173
24.614102350391732,0.5039522545332127
24.624104017336222,0.570064583067235
24.634105684280716,0.4804990030844721
24.644107351225205,0.4849259883757831
24.654109018169695,0.5453784623357835
24.664110685114185,0.5393353240516543
24.67411235205868,0.5685960251079399
24.684114019003168,0.49237150118465106
24.694115685947658,0.5795581855229043
24.70411735289215,0.5385503037858259
24.71411901983664,0.4848737402732357
24.72412068678113,0.569444388073125
24.73412235372562,0.43987864712616975
24.744124020670114,0.538072259566681
24.754125687614604,0.522402060411442
24.764127354559093,0.550820784283812
24.774129021503583,0.538882697760724
24.784130688448077,0.5598450897537204
24.794132355392566,0.5145008625239634
24.804134022337056,0.4960164577399095
24.81413568928155,0.5431030236171975
24.82413735622604,0.5488240692568375
24.83413902317053,0.5049455946436373
24.84414069011502,0.42874417207849713
24.854142357059512,0.502742496945937
24.864144024004002,0.5043310156326047
24.87414569094849,0.5127343888227616
24.88414735789298,0.5647603049402673
24.894149024837475,0.4841795488942616
24.904150691781965,0.5280089520956927
24.914152358726454,0.4942262111283201
24.924154025670948,0.5229039121569103
24.934155692615438,0.4473101749196388
24.944157359559927,0.44896128355805726
24.954159026504417,0.5341088939816669
24.96416069344891,0.5260045271291536
24.9741623603934,0.47888440336294436
24.98416402733789,0.5073242036983083
24.99416569428238,0.45881485823662005
25.004167361226873,0.47996783987090863
25.014169028171363,0.5274954455225384
25.024170695115853,0.39404898650405895
25.034172362060346,0.4552966937329961
25.044174029004836,0.4251321086667705
25.054175695949326,0.5046107704181334
25.064177362893815,0.47020962512830167
25.07417902983831,0.4489582965004491
25.0841806967828,0.4787787812232645
25.09418236372729,0.5374959564823497
25.104184030671778,0.4830021157387779
25.11418569761627,0.4464107233666194
25.12418736456076,0.5291508397118916
25.13418903150525,0.5522368213064647
25.144190698449744,0.583831922226862
25.154192365394234,0.5800642496563886
25.164194032338724,0.441562478315109
25.174195699283214,0.6236046827758822
25.184197366227707,0.5113093248758842
25.194199033172197,0.5209139245582636
25.204200700116687,0.51265898799187
25.214202367061176,0.5189424833753149
25.22420403400567,0.45588341671131566
25.23420570095016,0.1762874637411701
25.24420736789465,0.9699937332811188
25.25420903483914,2.0165830860485157
25.264210701783632,0.12494972071205215
25.274212368728122,0.36325484651935613
25.284214035672612,0.5276898538095354
25.294215702617105,0.5914469359208071
25.304217369561595,0.45661420910844797
25.314219036506085,0.45279083911286705
25.324220703450575,0.47468816215454196
25.334222370395068,0.5133178240202558
25.344224037339558,0.4202002745369984
25.354225704284048,0.5054322052975025
25.364227371228537,0.5319703717829394
25.37422903817303,0.5643130036175986
25.38423070511752,0.4758130473308593
25.39423237206201,0.49860908110201607
25.404234039006504,0.5373297389129368
25.414235705950993,0.4936011208404802
25.424237372895483,0.5503459257806597
25.434239039839973,0.5210453326637495
25.444240706784466,0.3969863532137725
25.454242373728956,0.5839833086764775
25.464244040673446,0.5573058143102891
25.474245707617936,0.47639986123412925
25.48424737456243,0.4534620578949628
25.49424904150692,0.46486096057259124
25.50425070845141,0.5050270931225705
25.514252375395902,0.5265625587859858
25.52425404234039,0.4308826525939998
25.53425570928488,0.461356028917831
25.54425737622937,0.5925172245687428
25.554259043173865,0.5116191552128787
25.564260710118354,0.5133218588812861
25.574262377062844,0.4661188894578367
25.584264044007334,0.5182090214618689
25.594265710951827,0.5066953832607465
25.604267377896317,0.44324636599249545
25.614269044840807,0.38891760122367947
25.6242707117853,0.5533789621372438
25.63427237872979,0.45183867474288786
25.64427404567428,0.42668993526638654
25.65427571261877,0.3786210614226409
25.664277379563263,0.4978642871707626
25.674279046507753,0.4281005125171902
25.684280713452242,0.4546479075134413
25.694282380396732,0.49783022476118177
25.704284047341226,0.487470118443771
25.714285714285715,0.40499676585608146
25.724287381230205,0.4316084235754167
25.7342890481747,0.39732880631816897
25.744290715119188,0.5618662245144851
25.754292382063678,0.46234860032509895
25.764294049008168,0.3933500191308949
25.77429571595266,0.5104910604901891
25.78429738289715,0.5728688083232902
25.79429904984164,0.5595320357729283
25.80430071678613,0.543576102676456
25.814302383730624,0.5076071449259273
25.824304050675114,0.5392445168998418
25.834305717619603,0.5330935322175652
25.844307384564097,0.5831179736304184
25.854309051508586,0.4201285722044917
25.864310718453076,0.5316022391205744
25.874312385397566,0.4387653323816239
25.88431405234206,0.54814195264673
25.89431571928655,0.46351094399011955
25.90431738623104,0.40475893827092313
25.91431905317553,0.4788337240015259
25.924320720120022,0.4507476660118109
25.934322387064512,0.5367635161115276
25.944324054009,0.5004057691119077
25.954325720953495,0.48735094079973557
25.964327387897985,0.45862612796184704
25.974329054842475,0.5063181784244414
25.984330721786964,0.5457542209457096
25.994332388731458,0.5518259601615323
26.004334055675947,0.503165592457264
26.014335722620437,0.41334610723820414
26.024337389564927,0.4555027516975615
26.03433905650942,0.5515465188337624
26.04434072345391,0.44287726867946603
26.0543423903984,0.42279084171195147
26.06434405734289,0.589696395675028
26.074345724287383,0.4217380112493575
26.084347391231873,0.436666195395669
26.094349058176363,0.47346799259069616
26.104350725120856,0.5036462269306747
26.114352392065346,0.40035224302961864
26.124354059009836,0.507741798209297
26.134355725954325,0.4173546223508358
26.14435739289882,0.4851526180615388
26.15435905984331,0.5073161791702684
26.1643607267878,0.45227549861924127
26.174362393732288,0.5088991066592975
26.18436406067678,0.4345897054379078
26.19436572762127,0.47254068905861946
26.20436739456576,0.455862522373265
26.214369061510254,0.4123288682287465
26.224370728454744,0.5136525358189447
26.234372395399234,0.5227699957014658
26.244374062343724,0.595394637006609
26.254375729288217,0.5186930360114552
26.264377396232707,0.3763658753093828
26.274379063177197,0.512450981860842
26.284380730121686,0.4149622947397001
26.29438239706618,0.492904860218916
26.30438406401067,0.3982638018220843
26.31438573095516,0.43118679372473134
26.324387397899653,0.3607812180540026
26.334389064844142,0.3506687741974123
26.344390731788632,0.5508972898625168
26.354392398733122,0.4272547732832253
26.364394065677615,0.47031074797222916
26.374395732622105,0.5347159342032624
26.384397399566595,0.431223897324902
26.394399066511085,0.4109196692371755
26.404400733455578,0.44924549787104534
26.414402400400068,0.389441306701649
26.424404067344557,0.4469470199241804
26.43440573428905,0.47288073733466396
26.44440740123354,0.46591315086187485
26.45440906817803,0.5041669455066126
26.46441073512252,0.43306968005823954
26.474412402067014,0.47341019506322135
26.484414069011503,0.45784957350397487
26.494415735955993,0.417342075066466
26.504417402900483,0.4877576391015623
26.514419069844976,0.4424411209162145
26.524420736789466,0.28419933518694573
26.534422403733956,0.8970219421961738
26.54442407067845,1.915671321723787
26.55442573762294,0.0591625825794491
26.56442740456743,0.33343914724629925
26.57442907151192,0.44751456714024646
26.584430738456412,0.44859213527145336
26.5944324054009,0.4022696939665549
26.60443407234539,0.4768704228343334
26.61443573928988,0.41131934219088406
26.624437406234374,0.47700152108186256
26.634439073178864,0.4523758360712481
26.644440740123354,0.4442810396476192
26.654442407067847,0.3850293764183407
26.664444074012337,0.3538942476974646
26.674445740956827,0.3793310719245036
26.684447407901317,0.4644334543791398
26.69444907484581,0.46930000448200293
26.7044507417903,0.39391029678333617
26.71445240873479,0.42243538826322297
26.72445407567928,0.4661260601616092
26.734455742623773,0.41337784147786033
26.744457409568263,0.34177169222345677
26.754459076512752,0.48388561881386283
26.764460743457242,0.36070406912900665
26.774462410401735,0.4687065089704742
26.784464077346225,0.43239894958211245
26.794465744290715,0.3196037548624165
26.80446741123521,0.40628341039536037
26.814469078179698,0.46681472239726446
26.824470745124188,0.4483245255248011
26.834472412068678,0.3976914582385243
26.84447407901317,0.40297485938766964
26.85447574595766,0.41106586953462465
26.86447741290215,0.3390125741812008
26.87447907984664,0.40710177158950767
26.884480746791134,0.427122059649404
26.894482413735624,0.47785836224909967
26.904484080680113,0.417051928901847
26.914485747624607,0.39398576115044104
26.924487414569096,0.4299231761067235
26.934489081513586,0.5145300234567386
26.944490748458076,0.38481841248123977
26.95449241540257,0.4110974650883792
26.96449408234706,0.30427425208995484
26.97449574929155,0.3693812180124411
26.98449741623604,0.3639225809798002
26.994499083180532,0.40828020361735684
27.004500750125022,0.5237193996574517
27.01450241706951,0.3183566839114279
27.024504084014005,0.39382353993379127
27.034505750958495,0.3880391241010104
27.044507417902985,0.39741368792181964
27.054509084847474,0.4588085790273136
27.064510751791968,0.3568872261017445
27.074512418736457,0.34706631107108454
27.084514085680947,0.37975378412857913
27.094515752625437,0.4046038344761074
27.10451741956993,0.4417772693190525
27.11451908651442,0.5214219280990442
27.12452075345891,0.421403461724491
27.134522420403403,0.29079170919772696
27.144524087347893,0.4100987810773381
27.154525754292383,0.4276921575951329
27.164527421236873,0.4428054242875318
27.174529088181366,0.4151121474243798
27.184530755125856,0.4277138612622312
27.194532422070345,0.38841057358859954
27.204534089014835,0.4130937369437151
27.21453575595933,0.32038550469442373
27.22453742290382,0.5152128571548519
27.234539089848308,0.29732235793853196
27.2445407567928,0.3314040253636812
27.25454242373729,0.3710614874682525
27.26454409068178,0.4344782147664797
27.27454575762627,0.306667773256364
27.284547424570764,0.4127521753689302
27.294549091515254,0.4003674171049896
27.304550758459744,0.32673074963562726
27.314552425404234,0.3778587418345327
27.324554092348727,0.28756722249591976
27.334555759293217,0.3998605835765489
27.344557426237706,0.38493289930208846
27.3545590931822,0.38438232344028744
27.36456076012669,0.392307460992155
27.37456242707118,0.27642328621900153
27.38456409401567,0.443524720241228
27.394565760960162,0.34630279123023144
27.404567427904652,0.30796427774647794
27.414569094849142,0.3743034097948533
27.424570761793632,0.31694007040728295
27.434572428738125,0.3951926913421777
27.444574095682615,0.4318976852478127
27.454575762627105,0.4381004440432125
27.464577429571595,0.3537980419377923
27.474579096516088,0.35517091821619584
27.484580763460578,0.39680176458329225
27.494582430405067,0.32391607053360616
27.50458409734956,0.3419070675653305
27.51458576429405,0.3388901005233884
27.52458743123854,0.2624316179812244
27.53458909818303,0.28518092200914874
27.544590765127523,0.31447293600784154
27.554592432072013,0.32531902812809527
27.564594099016503,0.31247834433394933
27.574595765960993,0.3793397710789929
27.584597432905486,0.3053403877095253
27.594599099849976,0.3342006255951567
27.604600766794466,0.35011517494541605
27.61460243373896,0.3415614735280403
27.62460410068345,0.3294886741355714
27.63460576762794,0.3941538524856578
27.64460743457243,0.27385049017745
27.65460910151692,0.35099454422451365
27.66461076846141,0.25586008706364854
27.6746124354059,0.3491417721419135
27.68461410235039,0.38145570395170314
27.694615769294884,0.3988377657683386
27.704617436239374,0.2884898392199188
27.714619103183864,0.33445298415832564
27.724620770128357,0.3123698413107263
27.734622437072847,0.22902740176266784
27.744624104017337,0.28482273378217987
27.754625770961827,0.21118515480452194
27.76462743790632,0.35082960034651556
27.77462910485081,0.30214071330019193
27.7846307717953,0.29511842196320176
27.79463243873979,0.36282416223536934
27.804634105684283,0.32459843441865277
27.814635772628773,0.229970956262571
27.824637439573262,0.3973110749698846
27.834639106517756,0.4075208032517875
27.844640773462245,0.36159751574884524
27.854642440406735,0.373640451519238
27.864644107351225,0.3036277490366717
27.87464577429572,0.2710492967659897
27.884647441240208,0.31232748608903954
27.894649108184698,0.30496393726113646
27.904650775129188,0.2864391382595209
27.91465244207368,0.21869608822478057
27.92465410901817,0.2999129746199877
27.93465577596266,0.29431656991833044
27.944657442907154,0.29249606514386883
27.954659109851644,0.30929613208087214
27.964660776796133,0.014918632825257308
27.974662443740623,0.7868717278862637
27.984664110685117,1.7561504825618715
27.994665777629606,-0.1310970181307014
28.004667444574096,0.14919085446352942
28.014669111518586,0.2819717263113113
28.02467077846308,0.18131838422477092
28.03467244540757,0.2684354704611866
28.04467411235206,0.36113490710638463
28.054675779296552,0.2226661232328502
28.064677446241042,0.305619249222809
28.07467911318553,0.24688325551807694
28.08468078013002,0.28126683816428316
28.094682447074515,0.2868566110584961
28.104684114019005,0.35429574621234605
28.114685780963494,0.1740891125966974
28.124687447907984,0.32484600219367865
28.134689114852478,0.26797464806978755
28.144690781796967,0.2155868915939493
28.154692448741457,0.3176948773320603
28.164694115685947,0.2812702436600872
28.17469578263044,0.21747891941090994
28.18469744957493,0.35155916023323036
28.19469911651942,0.21305518694070638
28.204700783463913,0.32695152951687206
28.214702450408403,0.30055864316626646
28.224704117352893,0.3924911564414495
28.234705784297383,0.3124326096471434
28.244707451241876,0.23820705499145695
28.254709118186366,0.20697593442861298
28.264710785130855,0.16357126315931741
28.274712452075345,0.19474577818722721
28.28471411901984,0.22753975836060705
28.29471578596433,0.29369105045195504
28.304717452908818,0.2036992027959271
28.31471911985331,0.24892330921274602
28.3247207867978,0.21944351853562613
28.33472245374229,0.23910695636298862
28.34472412068678,0.2812040449429568
28.354725787631274,0.31694635415881234
28.364727454575764,0.2700314051310801
28.374729121520254,0.2474437034644747
28.384730788464744,0.32052996847512605
28.394732455409237,0.24536472100445328
28.404734122353727,0.26099311851014473
28.414735789298216,0.22341432354368668
28.42473745624271,0.3045062501411847
28.4347391231872,0.20282624734607183
28.44474079013169,0.28865093961411364
28.45474245707618,0.32906214442829357
28.464744124020672,0.22646529227764467
28.474745790965162,0.2016239855078051
28.484747457909652,0.33395289580994375
28.494749124854142,0.2405752899726994
28.504750791798635,0.20107994150359154
28.514752458743125,0.2438137011270045
28.524754125687615,0.18548495139624493
28.534755792632108,0.2361525176041162
28.544757459576598,0.29729435404102167
28.554759126521088,0.22922825772708402
28.564760793465577,0.26248211634473545
28.57476246041007,0.2018727095987629
28.58476412735456,0.20264739372878743
28.59476579429905,0.1970046543838145
28.60476746124354,0.2039502856991193
28.614769128188033,0.26593782904301155
28.624770795132523,0.20879656492909954
28.634772462077013,0.13552175226984825
28.644774129021506,0.14461702113907518
28.654775795965996,0.08095210218714391
28.664777462910486,0.1674118147972392
28.674779129854976,0.20113255776265637
28.68478079679947,0.1832606540772066
28.69478246374396,0.12769849753355372
28.70478413068845,0.0922565476161987
28.71478579763294,0.15341305723205803
28.72478746457743,0.1949000101884614
28.73478913152192,0.24597175567152632
28.74479079846641,0.15797512759079296
28.754792465410905,0.11552824331920822
28.764794132355394,0.2643359363737802
28.774795799299884,0.18228966424337262
28.784797466244374,0.14687495381259108
28.794799133188867,0.1982157783493673
28.804800800133357,0.1620271682365012
28.814802467077847,0.20895840263610874
28.824804134022337,0.21912111860631917
28.83480580096683,0.15034642084699984
28.84480746791132,0.22367733405876372
28.85480913485581,0.13503613163358183
28.864810801800303,0.2459071820175403
28.874812468744793,0.12261265448114841
28.884814135689282,0.13205609195712356
28.894815802633772,0.1991033921890187
28.904817469578266,0.16810496748302495
28.914819136522755,0.18341069421650255
28.924820803467245,0.2031228391197739
28.934822470411735,0.14625896207379324
28.94482413735623,0.05811703717381281
28.954825804300718,0.17933125263946942
28.964827471245208,0.20831893626707618
28.974829138189698,0.07557806469372357
28.98483080513419,0.1534072399445587
28.99483247207868,0.12275711867065442
29.00483413902317,0.16424273215913354
29.014835805967664,0.2184958422100629
29.024837472912154,0.14521603844976644
29.034839139856643,0.1319207481897681
29.044840806801133,0.181604264903573
29.054842473745627,0.27560386450885577
29.064844140690116,0.18499492894680825
29.074845807634606,0.13305924107735168
29.084847474579096,0.17030235423155043
29.09484914152359,0.20751235801958862
29.10485080846808,0.12149827231881996
29.11485247541257,0.14002486974438233
29.124854142357062,0.17172867737038253
29.134855809301552,0.12064003837293984
29.14485747624604,0.22031421739722395
29.15485914319053,0.09772308915416816
29.164860810135025,0.09247699379533357
29.174862477079515,0.16950823321549266
29.184864144024004,0.15516893773684637
29.194865810968494,0.09392027398589406
29.204867477912988,0.15799462040370457
29.214869144857477,0.1737039019409664
29.224870811801967,0.20184459224513335
29.23487247874646,0.17081107465982323
29.24487414569095,0.10378142461295829
29.25487581263544,0.03968496466675049
29.26487747957993,0.16164799744666974
29.274879146524423,0.22990222099939878
29.284880813468913,0.09204113126705428
29.294882480413403,0.1487717945207167
29.304884147357892,0.09349995092688995
29.314885814302386,0.07810490786850637
29.324887481246876,0.052539491132012485
29.334889148191365,0.16231230005523095
29.34489081513586,0.11486597231491165
29.35489248208035,0.10362083213142503
29.36489414902484,0.12204691768508821
29.374895815969328,0.1396404132920414
29.38489748291382,0.14773737898108252
29.39489914985831,0.09909906129453135
29.4049008168028,0.04523765864121207
29.41490248374729,0.10077666347901
29.424904150691784,0.10644960429619543
29.434905817636274,0.11363328354783882
29.444907484580764,0.11035266577425282
29.454909151525257,0.09684621490934522
29.464910818469747,0.10863806207584457
29.474912485414237,0.05449172367836032
29.484914152358726,0.03319674090702597
29.49491581930322,0.06697950451222237
29.50491748624771,0.08394142950211808
29.5149191531922,0.057887770338208175
29.52492082013669,0.07455353629014748
29.534922487081182,0.10006589490967066
29.544924154025672,0.11503958664903939
29.554925820970162,-0.04329618663597121
29.564927487914655,-0.020460438652676077
29.574929154859145,0.058076162519362665
29.584930821803635,0.0207735086467173
29.594932488748125,0.09373315095620591
29.604934155692618,0.06096836479217311
29.614935822637108,0.06580662650073563
29.624937489581598,-0.18256026317139684
29.634939156526087,0.5159401036677684
29.64494082347058,1.4424336041546408
29.65494249041507,-0.2873477615345161
29.66494415735956,-0.1264525002348217
29.67494582430405,-0.030876473775821207
29.684947491248543,0.10286572945862434
29.694949158193033,0.14456839248708162
29.704950825137523,0.03883127868279858
29.714952492082016,0.05980825923824334
29.724954159026506,0.04623033826363361
29.734955825970996,-0.05288234394820512
29.744957492915486,0.03134321539057967
29.75495915985998,0.057196466570184255
29.76496082680447,0.09690900603359424
29.77496249374896,-0.014181612232879198
29.78496416069345,0.06476119949750495
29.79496582763794,0.06247170583630958
29.80496749458243,0.0735477093615491
29.81496916152692,0.06874943989045308
29.824970828471415,0.026723024829549982
29.834972495415904,-0.09470805313265891
29.844974162360394,0.14180679325936685
29.854975829304884,0.09200631516241027
29.864977496249377,0.08419062443394414
29.874979163193867,0.07376583675650383
29.884980830138357,0.020137716625309256
29.894982497082847,0.09469926087874471
29.90498416402734,-0.01962053263166188
29.91498583097183,-0.015824708364059838
29.92498749791632,0.013989762960485656
29.934989164860813,-0.05165955809802168
29.944990831805303,-0.003632035701296001
29.954992498749792,0.06858581607820848
29.964994165694282,-0.021683092438844573
29.974995832638776,-0.06740629792977425
29.984997499583265,0.012458779196662677
29.994999166527755,0.09892281273284678
30.005000833472245,-0.06672624073873093
30.01500250041674,0.0487402572154641
30.025004167361228,-0.09310064639398759
30.035005834305718,-0.0025914911803380015
30.04500750125021,-0.03166601126576751
30.0550091681947,-0.02962354981144752
30.06501083513919,0.006540690397073775
30.07501250208368,-0.02537543636279317
30.085014169028174,0.033922870267907586
30.095015835972664,-0.05733009086678802
30.105017502917153,-0.05494739647559377
30.115019169861643,0.06324435216177643
30.125020836806137,0.005525796034431454
30.135022503750626,-0.10482009296191563
30.145024170695116,-0.07494019093937909
30.15502583763961,-0.06298834808057477
30.1650275045841,0.09554883189986109
30.17502917152859,-0.0756899448699278
30.18503083847308,0.06939494239072627
30.195032505417572,-0.00810297150186411
30.205034172362062,0.11185854493432534
30.21503583930655,-0.014597422470230183
30.22503750625104,-0.04418527499588831
30.235039173195535,-0.0159094135850859
30.245040840140025,0.04373695390758866
30.255042507084514,-0.034459813712317086
30.265044174029008,-0.05287582886622856
30.275045840973497,-0.02499554072147966
30.285047507917987,-0.051798305600706245
30.295049174862477,-0.050517497671026666
30.30505084180697,-0.03365710009581686
30.31505250875146,0.028288652976085307
30.32505417569595,-0.040609662464072334
30.33505584264044,-0.18430497919855532
30.345057509584933,0.036786705601984535
30.355059176529423,-0.015059367759521346
30.365060843473913,-0.05499662718524579
30.375062510418402,-0.01620684086017902
30.385064177362896,-0.0953303447109102
30.395065844307386,-0.11825745942778174
30.405067511251875,-0.1005648212256327
30.41506917819637,-0.07905816294527894
30.42507084514086,-0.1415995805449573
30.43507251208535,-0.08435946714366233
30.445074179029838,-0.08378102913229586
30.45507584597433,-0.13770419734953676
30.46507751291882,-0.10847707212284276
30.47507917986331,-0.09338172150145851
30.4850808468078,-0.2222723647057206
30.495082513752294,-0.039967329777507415
30.505084180696784,-0.04288210817603322
30.515085847641274,-0.055495629418092496
30.525087514585767,-0.05898004487142444
30.535089181530257,-0.09184696292872253
30.545090848474747,-0.08285005123902314
30.555092515419236,-0.10692049229224465
30.56509418236373,-0.14285390368075593
30.57509584930822,-0.03822130007927193
30.58509751625271,-0.0723768779732854
30.5950991831972,-0.06910991605931129
30.605100850141692,-0.04814053819025692
30.615102517086182,-0.14531649508830702
30.625104184030672,-0.14932238522192692
30.635105850975165,-0.2003340748878671
30.645107517919655,-0.155139938608869
30.655109184864145,-0.16277499148057423
30.665110851808635,-0.10460216411523778
30.675112518753128,-0.0795098165279121
30.685114185697618,-0.1347819158617434
30.695115852642108,-0.08714053613108916
30.705117519586597,-0.10569504314125072
30.71511918653109,-0.2789859404556399
30.72512085347558,-0.08279231551089575
30.73512252042007,-0.12441647464472948
30.745124187364564,-0.09119101076923518
30.755125854309053,-0.16411485803451994
30.765127521253543,-0.19564023305200662
30.775129188198033,-0.18889671159769883
30.785130855142526,-0.1351818403960979
30.795132522087016,-0.10805920912658745
30.805134189031506,-0.1962934466617722
30.815135855975996,-0.10491947107560727
30.82513752292049,-0.1294482083977748
30.83513918986498,-0.12665784413493145
30.84514085680947,-0.09202154541480687
30.855142523753962,-0.19049197991135997
30.86514419069845,-0.17425114006402548
30.87514585764294,-0.18456362953124716
30.88514752458743,-0.1203442739800059
30.895149191531925,-0.14201011114667328
30.905150858476414,-0.12815547030273414
30.915152525420904,-0.17049219295938667
30.925154192365394,-0.0990565813849355
30.935155859309887,-0.19761097415544943
30.945157526254377,-0.11913554593842417
30.955159193198867,-0.1705318793205903
30.96516086014336,-0.12458190399093508
30.97516252708785,-0.08683108307251929
30.98516419403234,-0.12912543628771528
30.99516586097683,-0.11478285836133098
31.005167527921323,-0.2306973368747125
31.015169194865813,-0.15014638637448716
31.025170861810302,-0.19554245410512666
31.035172528754792,-0.22724666073622168
31.045174195699285,-0.26392201380463987
31.055175862643775,-0.1391543019315219
31.065177529588265,-0.18959557654233003
31.07517919653276,-0.12939602034490955
31.085180863477248,-0.1672663919334177
31.095182530421738,-0.2450323991313711
31.105184197366228,-0.2174819783275678
31.11518586431072,-0.16143317022776799
31.12518753125521,-0.2267656099675532
31.1351891981997,-0.17747256641987036
31.14519086514419,-0.23960256588401052
31.155192532088684,-0.23372000056036102
31.165194199033174,-0.19408205169585183
31.175195865977663,-0.17726650293335922
31.185197532922153,-0.1735603100952903
31.195199199866646,-0.1854599430061465
31.205200866811136,-0.23096514622327724
31.215202533755626,-0.20288682657343463
31.22520420070012,-0.14550183172031206
31.23520586764461,-0.12106846036538159
31.2452075345891,-0.13042692105485343
